Lead I
250,100
-23,-24,-25,-30,-38,-38,-42,-41,-42,-42,-45,-44,-49,-51,-50,-54,-54,-50,-46,-44,-34,-23,-16,-6,4,13,18,26,36,43,52,56,62,66,62,61,58,55,53,43,39,31,31,27,23,16,10,10,6,4,1,-2,-3,0,-1,-3,-3,-4,-7,-7,-12,-17,-11,-16,-21,-15,-10,-6,-1,9,16,25,37,47,44,50,48,38,31,23,11,-2,-10,-20,-26,-33,-34,-29,-34,-32,-28,-25,-19,-18,-2,31,103,168,218,253,249,143,-45,-202,-280,-295,-273,-222,-168,-116,-79,-62,-50,-42,-42,-45,-49,-51,-49,-51,-45,-41,-38,-40,-42,-42,-51,-49,-47,-44,-52,-53,-52,-55,-52,-53,-56,-64,-70,-73,-73,-77,-78,-80,-85,-86,-94,-106,-111,-116,-122,-131,-138,-140,-138,-138,-141,-147,-154,-157,-164,-165,-166,-161,-159,-146,-138,-133,-130,-118,-112,-101,-91,-76,-64,-60,-52,-37,-32,-30,-30,-30,-30,-28,-29,-23,-23,-19,-16,-21,-24,-26,-29,-35,-37,-30,-29,-18,-23,-25,-28,-32,-35,-38,-40,-38,-40,-42,-44,-40,-43,-43,-53,-69,-75,-85,-86,-93,-94,-90,-88,-85,-80,-80,-87,-85,-86,-82,-86,-91,-91,-90,-84,-82,-86,-85,-92,-94,-93,-91,-92,-92,-88,-85,-83,-87,-84,-85,-89,-95,-92,-96,-96,-89,-88,-85,-84,-86,-96,-96,-92,-90,-96,-96,-92,-86,-88,-90,-87,-86,-89,-89,-93,-97,-100,-92,-86,-86,-89,-95,-98,-99,-96,-93,-94,-97,-92,-89,-86,-84,-87,-89,-90,-93,-92,-95,-88,-88,-85,-72,-63,-60,-63,-66,-64,-57,-58,-56,-58,-45,-42,-48,-60,-64,-76,-84,-90,-97,-101,-103,-105,-100,-100,-98,-93,-90,-80,-64,-31,27,106,166,208,216,122,-53,-223,-329,-356,-342,-315,-278,-226,-178,-146,-134,-128,-126,-122,-123,-116,-118,-120,-118,-116,-114,-114,-117,-118,-120,-121,-125,-122,-127,-126,-126,-122,-126,-127,-131,-135,-135,-137,-140,-145,-142,-144,-147,-149,-151,-154,-160,-164,-168,-170,-171,-174,-170,-176,-179,-180,-180,-187,-189,-189,-189,-189,-191,-186,-187,-185,-182,-183,-171,-162,-149,-143,-135,-123,-105,-92,-76,-68,-63,-66,-69,-75,-81,-82,-82,-82,-84,-83,-84,-88,-90,-97,-98,-104,-101,-102,-99,-94,-97,-97,-99,-104,-108,-109,-109,-109,-112,-110,-108,-104,-109,-109,-110,-113,-115,-119,-116,-119,-115,-106,-106,-112,-111,-110,-115,-117,-117,-108,-106,-107,-93,-52,16,91,145,141,14,-182,-331,-394,-400,-378,-338,-284,-211,-150,-113,-91,-82,-86,-89,-84,-85,-83,-86,-85,-92,-86,-93,-101,-103,-101,-106,-108,-108,-110,-114,-115,-118,-127,-127,-128,-134,-137,-136,-135,-135,-134,-142,-147,-153,-163,-165,-172,-177,-182,-179,-180,-186,-189,-191,-196,-200,-203,-203,-201,-200,-186,-182,-178,-167,-163,-155,-148,-137,-124,-122,-110,-99,-89,-86,-80,-80,-83,-81,-83,-81,-82,-85,-81,-80,-79,-82,-86,-86,-88,-92,-93,-92,-91,-89,-83,-84,-86,-87,-89,-100,-100,-99,-97,-92,-95,-93,-94,-96,-96,-96,-99,-99,-105,-100,-101,-93,-95,-97,-93,-95,-96,-99,-106,-105,-105,-102,-99,-98,-93,-95,-94,-86,-71,-59,-66,-62,-64,-61,-55,-53,-53,-51,-57,-59,-59,-62,-63,-60,-54,-51,-48,-41,-31,-21,-12,0,8,8,16,16,15,9,2,-10,-20,-27,-38,-46,-57,-62,-64,-69,-64,-67,-63,-61,-66,-64,-47,-39,-18,34,104,165,193,220,200,60,-130,-259,-318,-323,-280,-221,-171,-128,-103,-85,-80,-79,-77,-74,-71,-71,-71,-65,-68,-74,-71,-75,-81,-82,-82,-79,-81,-80,-79,-82,-83,-88,-89,-93,-96,-99,-100,-99,-101,-103,-110,-112,-116,-122,-131,-132,-135,-140,-147,-148,-148,-150,-152,-161,-169,-169,-173,-175,-177,-178,-180,-176,-178,-183,-183,-180,-182,-177,-172,-170,-158,-141,-131,-117,-107,-96,-87,-82,-72,-65,-56,-49,-44,-41,-36,-30,-30,-33,-36,-36,-37,-37,-36,-35,-30,-32,-27,-26,-33,-35,-37,-36,-34,-36,-34,-34,-30,-35,-34,-38,-41,-43,-41,-41,-43,-41,-41,-45,-41,-44,-44,-48,-48,-48,-51,-48,-45,-44,-40,-41,-42,-46,-51,-51,-51,-49,-49,-49,-46,-47,-44,-43,-47,-48,-53,-45,-47,-44,-45,-41,-42,-37,-40,-45,-49,-50,-49,-45,-49,-50,-50,-50,-45,-49,-49,-48,-53,-49,-48,-48,-46,-49,-45,-46,-44,-43,-47,-53,-55,-54,-54,-50,-49,-48,-50,-46,-47,-47,-53,-51,-53,-53,-54,-51,-46,-42,-41,-28,-25,-30,-23,-24,-17,-12,-3,1,10,14,14,3,-10,-20,-26,-40,-44,-50,-53,-51,-55,-60,-61,-54,-57,-58,-48,-33,-10,42,111,165,200,225,204,64,-128,-263,-320,-324,-296,-232,-172,-130,-105,-91,-84,-88,-86,-88,-83,-82,-79,-75,-79,-76,-78,-83,-83,-90,-91,-90,-92,-88,-88,-90,-92,-93,-100,-105,-107,-105,-111,-107,-107,-108,-114,-120,-123,-125,-134,-137,-146,-149,-156,-159,-154,-161,-164,-165,-173,-182,-186,-188,-190,-196,-196,-194,-196,-194,-194,-182,-179,-170,-169,-155,-143,-132,-115,-104,-94,-82,-84,-83,-83,-78,-75,-70,-65,-57,-62,-63,-57,-59,-62,-58,-64,-63,-61,-64,-60,-57,-59,-60,-60,-67,-67,-68,-69,-73,-70,-67,-63,-68,-64,-64,-70,-70,-73,-69,-70,-75,-69,-68,-69,-69,-70,-72,-75,-74,-71,-72,-72,-67,-56,-54,-40,-1,67,131,183,204,118,-65,-233,-314,-314,-272,-210,-143,-96,-72,-58,-45,-42,-41,-44,-43,-45,-46,-50,-54,-57,-62,-66,-71,-70,-72,-74,-77,-80,-76,-79,-83,-85,-84,-84,-91,-90,-89,-92,-92,-97,-101,-110,-114,-120,-119,-126,-128,-129,-131,-139,-138,-145,-154,-156,-155,-162,-160,-158,-157,-159,-153,-143,-136,-128,-119,-108,-98,-88,-76,-62,-57,-49,-39,-41,-32,-35,-31,-31,-34,-34,-28,-31,-32,-37,-39,-43,-45,-44,-40,-47,-45,-43,-39,-40,-39,-36,-44,-46,-50,-48,-46,-42,-45,-41,-41,-44,-42,-48,-49,-48,-48,-47,-48,-48,-45,-45,-43,-43,-36,-32,-25,-16,-7,11,23,21,27,20,7,0,-7,-18,-27,-37,-46,-52,-58,-62,-67,-65,-69,-68,-67,-62,-60,-56,-46,-42,-27,6,66,131,178,215,206,84,-116,-255,-314,-322,-293,-241,-183,-140,-111,-91,-78,-71,-69,-66,-62,-61,-63,-60,-68,-65,-69,-68,-73,-68,-69,-69,-69,-69,-71,-73,-77,-79,-80,-82,-82,-82,-85,-86,-88,-93,-99,-102,-112,-116,-120,-119,-123,-122,-127,-129,-136,-143,-152,-152,-160,-159,-160,-155,-162,-160,-160,-161,-162,-156,-157,-149,-144,-134,-120,-106,-98,-84,-73,-66,-58,-46,-42,-39,-26,-24,-20,-19,-18,-17,-22,-24,-24,-22,-24,-16,-18,-16,-16,-24,-24,-27,-27,-24,-24,-25,-23,-24,-20,-18,-21,-23,-26,-28,-28,-30,-27,-25,-24,-22,-21,-24,-32,-32,-35,-36,-31,-32,-23,-21,-24,-25,-22,-28,-31,-32,-32,-35,-32,-31,-30,-28,-32,-30,-29,-32,-37,-41,-39,-38,-38,-34,-29,-29,-30,-32,-33,-38,-39,-38,-41,-42,-44,-43,-41,-43,-43,-48,-55,-46,-41,-46,-47,-46,-47,-44,-45,-45,-48,-51,-52,-53,-53,-54,-48,-52,-59,-68,-70,-78,-86,-88,-88,-83,-83,-81,-79,-78,-74,-69,-61,-59,-59,-59,-65,-58,-56,-44,-42,-36,-30,-29,-41,-52,-61,-67,-72,-76,-79,-80,-79,-87,-87,-91,-96,-93,-86,-72,-58,-26,37,107,165,207,227,160,-10,-191,-302,-343,-334,-309,-267,-217,-171,-144,-129,-122,-113,-108,-110,-110,-104,-104,-103,-109,-107,-108,-107,-115,-116,-116,-118,-115,-108,-112,-114,-117,-116,-123,-125,-130,-126,-128,-126,-126,-132,-137,-138,-135,-143,-150,-154,-158,-165,-167,-164,-165,-168,-170,-176,-181,-190,-188,-191,-193,-195,-193,-196,-195,-197,-200,-203,-207,-199,-196,-196,-185,-176,-172,-160,-155,-140,-140,-134,-126,-119,-114,-107,-97,-88,-82,-85,-84,-79,-77,-76,-74,-69,-69,-70,-69,-64,-62,-64,-69,-70,-71,-67,-69,-67,-65,-66,-62,-58,-64,-63,-65,-67,-72,-70,-67,-70,-62,-67,-64,-63,-69,-69,-70,-73,-74,-72,-71,-69,-67,-69,-70,-69,-72,-77,-77,-76,-72,-69,-64,-62,-63,-65,-64,-60,-64,-65,-67,-64,-65,-64,-60,-58,-59,-52,-56,-58,-63,-62,-60,-64,-61,-54,-51,-51,-46,-31,-29,-31,-31,-24,-24,-28,-23,-24,-22,-22,-22,-24,-24,-21,-24,-22,-14,-8,0,3,2,6,7,10,7,6,5,7,9,7,0,1,-7,-14,-21,-26,-34,-35,-39,-39,-32,-28,-29,-29,-13,-8,13,59,129,178,211,235,214,82,-102,-237,-302,-306,-282,-231,-170,-123,-87,-68,-52,-43,-44,-45,-45,-46,-42,-47,-43,-45,-44,-44,-40,-39,-42,-44,-47,-51,-51,-49,-54,-49,-52,-50,-52,-60,-64,-69,-72,-72,-79,-77,-77,-84,-87,-95,-105,-108,-117,-120,-126,-126,-135,-143,-142,-150,-154,-153,-162,-172,-169,-175,-180,-186,-184,-178,-177,-172,-172,-170,-164,-152,-142,-132,-122,-106,-92,-77,-70,-60,-53,-51,-40,-36,-30,-26,-23,-16,-13,-12,-13,-14,-14,-19,-16,-13,-15,-13,-11,-10,-10,-12,-10,-19,-19,-21,-19,-20,-21,-16,-16,-16,-17,-20,-20,-27,-26,-27,-26,-24,-21,-26,-23,-24,-23,-27,-31,-37,-36,-32,-35,-24,-28,-24,-27,-27,-32,-32,-34,-32,-37,-32,-33,-29,-29,-30,-27,-31,-34,-32,-35,-34,-33,-32,-30,-28,-26,-29,-33,-33,-33,-38,-35,-32,-33,-29,-30,-35,-32,-33,-31,-31,-32,-25,-19,-10,-1,-1,-1,3,5,2,-3,-3,-2,-4,-10,-10,-14,-20,-22,-29,-39,-40,-40,-47,-47,-44,-40,-40,-30,-18,-9,20,79,150,195,227,245,177,0,-173,-277,-311,-297,-256,-198,-145,-105,-82,-63,-56,-53,-56,-56,-56,-55,-56,-58,-55,-55,-51,-50,-50,-57,-59,-63,-66,-66,-64,-64,-64,-60,-62,-65,-67,-64,-74,-76,-78,-83,-84,-92,-93,-95,-97,-103,-109,-119,-126,-129,-135,-141,-148,-148,-151,-154,-162,-165,-168,-175,-181,-183,-187,-184,-184,-177,-171,-164,-158,-148,-143,-136,-120,-108,-96,-83,-69,-58,-48,-42,-37,-36,-27,-22,-21,-18,-15,-12,-13,-8,-16,-13,-18,-20,-20,-16,-15,-11,-10,-11,-10,-11,-14,-20,-22,-21,-19,-20,-17,-15,-12,-14,-16,-19,-19,-23,-24,-23,-25,-22,-16,-16,-18,-25,-22,-28,-23,-24,-22,-23,-23,-22,-22,-22,-24,-21,-22,-26,-22,-28,-31,-25,-20,-18,-18,-19,-23,-25,-23,-28,-26,-21,-24,-23,-18,-15,-17,-19,-23,-27,-27,-28,-24,-23,-23,-18,-18,-17,-16,-16,-14,-9,-3,2,1,7,14,18,23,18,11,12,13,12,10,5,-2,-8,-9,-12,-18,-20,-28,-32,-31,-26,-28,-23,-12,4,23,64,132,191,222,255,253,151,-38,-192,-268,-281,-256,-206,-153,-104,-77,-52,-45,-38,-32,-31,-29,-27,-27,-28,-28,-30,-32,-31,-32,-31,-26,-29,-30,-34,-34,-33,-36,-39,-41,-40,-44,-43,-43,-46,-50,-52,-57,-66,-64,-75,-75,-82,-83,-87,-89,-94,-96,-105,-116,-124,-123,-122,-127,-131,-132,-138,-143,-139,-151,-154,-154,-150,-153,-149,-141,-128,-114,-103,-94,-85,-75,-59,-46,-39,-34,-19,-7,0,5,9,11,12,11,15,13,18,19,24,21,20,23,24,25,19,12,12,13,12,13,15,16,17,21,15,15,13,10,6,6,13,18,19,15,9,9,6,9,8,6,2,4,5,4,5,7,2,-1,-3,1,0,0,4,1,1,-1,7,3,1,-2,-6,-6,-3,-6,-4,-2,-3,-3,-5,-7,-7,-6,-8,-8,-8,-3,0,-3,-4,-8,-8,-6,-6,-8,-9,-9,-6,0,2,0,0,8,1,7,6,14,18,21,19,24,20,13,10,0,-9,-14,-20,-28,-30,-32,-34,-32,-36,-35,-37,-31,-13,-3,22,74,147,204,252,273,201,18,-164,-277,-325,-324,-294,-246,-187,-144,-115,-99,-93,-93,-93,-94,-89,-86,-86,-78,-82,-79,-81,-78,-88,-85,-92,-91,-88,-87,-88,-89,-91,-91,-92,-92,-97,-97,-102,-103,-107,-107,-108,-104,-106,-115,-130,-133,-141,-142,-143,-153,-154,-159,-165,-170,-174,-179,-186,-188,-197,-201,-197,-198,-200,-200,-200,-200,-202,-187,-182,-177,-168,-151,-136,-129,-116,-107,-98,-97,-94,-93,-83,-74,-71,-67,-63,-61,-60,-59,-56,-61,-62,-58,-58,-54,-48,-46,-50,-46,-54,-56,-56,-56,-56,-56,-52,-47,-50,-55,-53,-56,-58,-63,-62,-60,-63,-66,-66,-63,-61,-57,-59,-65,-72,-71,-71,-70,-66,-69,-70,-65,-65,-66,-69,-69,-72,-78,-74,-71,-68,-71,-68,-69,-71,-72,-82,-81,-77,-77,-77,-73,-74,-73,-71,-74,-76,-76,-82,-83,-85,-78,-74,-73,-74,-77,-76,-74,-81,-79,-80,-70,-66,-55,-49,-48,-48,-48,-44,-45,-47,-52,-50,-50,-53,-56,-59,-63,-68,-74,-85,-90,-93,-95,-94,-93,-88,-81,-79,-64,-56,-38,7,78,128,162,187,151,-2,-186,-309,-359,-349,-329,-284,-226,-177,-146,-125,-115,-101,-103,-101,-105,-104,-105,-106,-106,-106,-108,-105,-105,-105,-107,-106,-109,-113,-105,-115,-112,-108,-111,-113,-114,-114,-118,-126,-127,-132,-133,-138,-142,-138,-143,-149,-153,-160,-168,-176,-182,-187,-190,-195,-198,-202,-205,-211,-216,-221,-228,-231,-232,-232,-237,-237,-230,-222,-218,-208,-202,-196,-186,-174,-156,-150,-138,-126,-115,-107,-97,-96,-91,-86,-85,-81,-79,-78,-70,-69,-63,-66,-65,-67,-66,-71,-70,-70,-68,-63,-60,-60,-62,-62,-67,-67,-68,-72,-68,-70,-66,-66,-67,-68,-70,-72,-73,-73,-76,-78,-76,-79,-74,-74,-74,-72,-75,-79,-81,-84,-84,-84,-80,-76,-76,-80,-76,-82,-81,-84,-81,-68,-58,-61,-60,-55,-55,-56,-54,-57,-61,-62,-61,-58,-58,-56,-54,-51,-48,-47,-48,-49,-52,-50,-52,-48,-49,-43,-42,-43,-38,-38,-33,-33,-26,-27,-23,-21,-13,-12,-14,-17,-20,-17,-26,-32,-37,-42,-47,-49,-49,-50,-57,-59,-64,-65,-60,-61,-57,-39,-25,3,61,132,177,205,226,192,33,-156,-283,-332,-338,-307,-241,-186,-139,-112,-97,-82,-82,-82,-80,-76,-74,-69,-72,-72,-76,-78,-79,-81,-77,-77,-78,-79,-80,-80,-80,-85,-92,-90,-93,-95,-98,-95,-100,-98,-102,-106,-108,-116,-121,-126,-131,-132,-139,-136,-144,-143,-154,-161,-165,-175,-180,-186,-184,-191,-194,-194,-201,-204,-208,-206,-210,-210,-202,-200,-196,-184,-171,-161,-148,-137,-130,-116,-109,-98,-88,-76,-69,-59,-49,-49,-46,-47,-48,-48,-44,-46,-48,-45,-42,-39,-40,-41,-48,-51,-49,-54,-50,-48,-48,-46,-45,-47,-50,-46,-47,-51,-51,-54,-55,-51,-52,-51,-52,-50,-52,-53,-57,-58,-58,-58,-57,-57,-52,-51,-54,-55,-58,-60,-59,-59,-58,-59,-55,-56,-51,-54,-53,-57,-59,-60,-58,-56,-57,-55,-51,-51,-51,-56,-59,-62,-57,-64,-60,-58,-60,-56,-54,-52,-59,-56,-57,-58,-57,-54,-50,-46,-40,-35,-30,-28,-27,-30,-29,-26,-34,-34,-32,-28,-34,-42,-41,-48,-58,-62,-67,-72,-74,-74,-68,-66,-65,-61,-54,-45,-24,28,102,158,191,222,196,43,-149,-274,-326,-329,-303,-237,-185,-144,-116,-98,-87,-83,-84,-84,-87,-90,-86,-90,-91,-88,-86,-86,-85,-85,-89,-90,-93,-97,-98,-97,-98,-96,-92,-93,-98,-101,-105,-110,-112,-113,-118,-125,-124,-126,-132,-134,-143,-148,-157,-162,-166,-169,-180,-178,-182,-188,-191,-199,-204,-210,-214,-218,-223,-219,-216,-214,-206,-200,-196,-188,-183,-174,-161,-149,-133,-124,-111,-99,-88,-81,-74,-75,-71,-69,-70,-66,-63,-53,-52,-56,-56,-57,-61,-57,-54,-61,-61,-56,-53,-52,-51,-53,-54,-61,-61,-62,-61,-67,-60,-60,-61,-61,-63,-63,-65,-68,-68,-68,-69,-64,-64,-67,-61,-62,-67,-72,-72,-72,-70,-72,-71,-69,-68,-66,-62,-68,-69,-70,-73,-72,-72,-70,-66,-64,-63,-68,-64,-70,-73,-70,-67,-66,-65,-65,-63,-58,-62,-68,-67,-70,-70,-67,-64,-64,-60,-56,-56,-49,-44,-40,-43,-39,-35,-34,-29,-22,-24,-25,-19,-25,-34,-43,-48,-48,-54,-60,-62,-60,-64,-63,-60,-67,-66,-63,-54,-41,-28,22,92,157,200,235,231,109,-89,-251,-327,-335,-319,-261,-197,-145,-107,-93,-85,-77,-75,-77,-75,-74,-68,-67,-68,-72,-75,-79,-76,-84,-85,-81,-83,-85,-84,-82,-80,-84,-86,-88,-91,-92,-96,-101,-102,-101,-100,-104,-106,-115,-124,-128,-135,-139,-146,-152,-150,-156,-161,-168,-173,-183,-189,-189,-193,-196,-197,-199,-200,-198,-200,-202,-204,-199,-198,-188,-181,-164,-151,-137,-130,-120,-115,-112,-99,-93,-87,-78,-72,-69,-65,-68,-80,-96,-99,-105,-98,-95,-99,-96,-92,-89,-92,-91,-96,-96,-98,-102,-104,-100,-99,-99,-91,-90,-94,-96,-97,-98,-99,-100,-103,-102,-101,-102,-103,-98,-95,-100,-107,-110,-108,-104,-101,-103,-104,-105,-106,-106,-108,-108,-111,-110,-100,-105,-104,-105,-105,-103,-104,-101,-104,-110,-108,-106,-104,-102,-106,-103,-111,-111,-109,-106,-108,-110,-112,-111,-111,-98,-101,-99,-96,-96,-102,-98,-94,-91,-85,-87,-80,-82,-77,-69,-74,-78,-80,-81,-81,-92,-96,-93,-93,-102,-108,-108,-116,-117,-118,-113,-113,-109,-92,-77,-55,-19,39,104,147,189,193,90,-100,-254,-336,-346,-333,-313,-262,-211,-171,-149,-140,-128,-120,-117,-116,-111,-110,-117,-118,-113,-115,-119,-122,-116,-114,-116,-116,-119,-120,-124,-122,-118,-122,-122,-121,-121,-120,-118,-123,-127,-133,-138,-140,-147,-148,-153,-152,-155,-163,-171,-175,-185,-190,-195,-200,-199,-206,-208,-212,-214,-221,-226,-226,-230,-234,-233,-238,-230,-221,-215,-206,-195,-184,-175,-171,-160,-148,-137,-127,-114,-111,-107,-98,-96,-96,-94,-91,-89,-91,-87,-84,-80,-80,-77,-76,-77,-82,-79,-79,-83,-79,-75,-72,-73,-70,-74,-78,-77,-80,-83,-80,-82,-78,-77,-80,-78,-78,-82,-84,-88,-91,-82,-81,-78,-80,-76,-79,-77,-82,-84,-85,-87,-87,-85,-87,-82,-82,-82,-78,-87,-85,-87,-91,-87,-89,-89,-82,-82,-84,-83,-86,-86,-92,-88,-87,-87,-87,-84,-83,-78,-79,-80,-84,-86,-86,-91,-86,-82,-80,-74,-71,-67,-61,-54,-56,-54,-55,-59,-52,-52,-53,-49,-46,-51,-56,-64,-66,-69,-77,-81,-83,-80,-83,-85,-84,-82,-83,-76,-64,-52,-16,52,117,156,187,197,112,-79,-249,-335,-353,-343,-298,-228,-178,-136,-121,-110,-107,-105,-103,-99,-96,-98,-91,-91,-94,-91,-94,-96,-100,-101,-104,-100,-99,-97,-99,-98,-99,-101,-103,-108,-112,-110,-114,-114,-113,-113,-117,-125,-123,-130,-141,-145,-147,-152,-157,-161,-163,-168,-176,-178,-185,-193,-195,-200,-203,-209,-216,-211,-214,-215,-210,-209,-215,-210,-200,-191,-182,-172,-157,-144,-130,-120,-107,-102,-91,-85,-76,-67,-60,-37,-24,-24,-23,-23,-26,-27,-25,-25,-26,-22,-20,-14,-15,-18,-20,-20,-24,-26,-23,-22,-22,-19,-17,-16,-16,-17,-20,-25,-25,-22,-25,-26,-24,-23,-23,-19,-22,-24,-27,-28,-28,-33,-34,-28,-23,-24,-22,-24,-26,-30,-27,-27,-29,-32,-26,-25,-26,-24,-22,-24,-27,-26,-25,-26,-26,-28,-20,-23,-20,-20,-20,-20,-25,-24,-25,-25,-23,-20,-14,-14,-13,-17,-14,-15,-14,-7,-3,2,5,9,10,15,12,15,3,4,5,3,-5,-7,-7,-11,-14,-17,-20,-26,-28,-29,-26,-30,-30,-25,-3,6,46,116,179,212,245,258,172,-21,-187,-267,-278,-259,-216,-168,-126,-92,-73,-63,-57,-53,-51,-43,-47,-45,-48,-48,-48,-47,-47,-54,-49,-52,-50,-50,-54,-50,-60,-58,-59,-59,-59,-62,-61,-59,-60,-67,-68,-70,-72,-79,-84,-86,-94,-96,-98,-100,-106,-111,-121,-125,-134,-133,-141,-148,-146,-149,-153,-159,-162,-171,-168,-175,-176,-179,-178,-169,-158,-152,-140,-128,-116,-109,-99,-90,-75,-62,-50,-42,-28,-26,-20,-20,-18,-15,-15,-11,-8,-10,-11,-8,-9,-8,-6,-6,-10,-11,-17,-15,-10,-16,-9,-14,-9,-7,-6,-11,-10,-11,-6,-13,-15,-17,-14,-16,-15,-18,-18,-21,-23,-27,-25,-27,-26,-22,-19,-16,-17,-21,-25,-29,-30,-26,-32,-30,-26,-30,-27,-23,-26,-31,-33,-35,-31,-34,-31,-29,-23,-20,-22,-25,-27,-35,-30,-33,-31,-28,-28,-23,-26,-27,-27,-26,-30,-30,-31,-30,-24,-24,-12,-2,3,-1,1,-1,-3,-2,-8,-9,-6,0,-6,-14,-15,-20,-29,-33,-35,-41,-46,-43,-44,-39,-36,-38,-32,-17,-9,23,80,155,203,243,269,190,3,-171,-281,-317,-305,-281,-231,-179,-139,-104,-84,-72,-68,-73,-80,-84,-82,-88,-93,-94,-90,-87,-93,-95,-94,-100,-104,-104,-102,-103,-105,-104,-98,-100,-103,-102,-109,-114,-115,-120,-124,-125,-127,-128,-128,-131,-138,-144,-149,-155,-160,-168,-168,-176,-178,-184,-184,-189,-196,-204,-213,-211,-211,-217,-218,-216,-212,-210,-206,-207,-198,-196,-185,-177,-162,-149,-137,-127,-119,-116,-108,-100,-94,-93,-89,-84,-83,-79,-74,-72,-80,-80,-80,-83,-81,-75,-80,-82,-82,-81,-74,-73,-76,-76,-83,-85,-85,-86,-88,-89,-81,-80,-80,-80,-85,-89,-94,-97,-99,-100,-95,-84,-90,-93,-95,-94,-98,-101,-100,-102,-96,-96,-92,-93,-85,-90,-100,-102,-104,-106,-102,-99,-98,-101,-103,-95,-87,-89,-94,-106,-102,-101,-102,-105,-106,-102,-99,-99,-97,-100,-103,-107,-102,-101,-96,-94,-90,-90,-84,-77,-74,-74,-72,-74,-76,-74,-67,-69,-67,-62,-71,-76,-85,-90,-88,-88,-98,-98,-99,-99,-106,-106,-101,-99,-95,-79,-69,-37,21,97,146,184,194,114,-70,-234,-331,-357,-342,-314,-267,-210,-172,-143,-136,-123,-122,-120,-120,-122,-115,-112,-111,-110,-106,-112,-112,-114,-116,-117,-122,-116,-117,-116,-115,-114,-113,-116,-123,-130,-127,-126,-125,-120,-127,-134,-138,-140,-155,-154,-157,-160,-167,-176,-178,-182,-185,-191,-192,-200,-210,-212,-216,-226,-225,-224,-222,-224,-229,-231,-233,-229,-222,-214,-205,-196,-188,-178,-163,-151,-140,-128,-127,-125,-117,-109,-106,-103,-92,-90,-88,-88,-93,-98,-95,-96,-97,-97,-88,-84,-83,-80,-81,-84,-87,-87,-86,-90,-91,-88,-83,-84,-84,-82,-85,-86,-90,-95,-87,-90,-92,-87,-89,-92,-90,-91,-93,-95,-95,-98,-95,-92,-87,-85,-85,-90,-88,-93,-96,-94,-92,-90,-93,-85,-87,-88,-89,-89,-90,-92,-92,-92,-90,-92,-90,-87,-86,-91,-92,-91,-92,-93,-94,-92,-92,-90,-90,-89,-88,-87,-89,-88,-80,-80,-75,-69,-61,-61,-58,-57,-56,-56,-64,-66,-65,-64,-68,-73,-71,-72,-78,-82,-90,-96,-96,-98,-96,-93,-94,-89,-71,-60,-44,2,66,118,143,169,153,18,-168,-294,-352,-360,-330,-280,-219,-176,-139,-125,-116,-108,-99,-95,-96,-94,-95,-90,-95,-93,-95,-96,-92,-95,-94,-93,-94,-96,-99,-101,-101,-104,-103,-106,-107,-104,-107,-108,-112,-111,-121,-122,-122,-125,-131,-134,-136,-139,-141,-150,-156,-164,-171,-171,-178,-180,-184,-184,-190,-190,-196,-201,-206,-214,-219,-215,-216,-214,-204,-193,-192,-182,-172,-163,-155,-143,-132,-120,-109,-93,-84,-76,-70,-66,-64,-64,-59,-60,-58,-54,-53,-51,-49,-48,-46,-49,-55,-49,-51,-50,-53,-50,-48,-47,-43,-42,-48,-52,-48,-53,-50,-50,-56,-54,-50,-50,-53,-55,-53,-55,-56,-58,-59,-60,-55,-57,-58,-57,-55,-58,-65,-68,-64,-63,-67,-65,-60,-62,-64,-56,-62,-68,-64,-64,-68,-66,-64,-62,-60,-60,-57,-59,-62,-65,-64,-68,-70,-63,-66,-62,-58,-59,-58,-58,-64,-64,-65,-69,-64,-60,-58,-50,-42,-35,-30,-31,-34,-36,-32,-30,-33,-33,-29,-29,-35,-36,-45,-54,-58,-66,-71,-72,-73,-72,-71,-67,-66,-68,-63,-45,-27,16,84,150,184,213,210,108,-92,-245,-316,-325,-316,-251,-188,-139,-103,-79,-72,-65,-70,-69,-71,-69,-69,-70,-68,-64,-63,-63,-64,-67,-63,-71,-70,-71,-71,-70,-68,-68,-68,-64,-69,-72,-78,-77,-81,-81,-84,-87,-85,-88,-91,-95,-103,-104,-108,-121,-117,-125,-127,-128,-128,-136,-142,-152,-151,-161,-160,-169,-168,-170,-169,-168,-167,-165,-160,-159,-156,-147,-130,-117,-105,-93,-77,-62,-50,-42,-30,-27,-16,-16,-9,-5,-1,0,5,5,6,8,9,4,6,5,3,4,10,12,13,10,12,9,5,7,1,7,4,5,7,11,9,1,1,3,1,0,-1,-1,1,6,7,7,6,0,-1,0,-4,0,-3,-2,3,7,1,2,3,-1,0,-2,4,-2,0,4,7,7,8,4,0,4,2,5,3,0,4,10,9,11,8,6,1,4,2,0,5,8,8,13,16,20,23,24,29,30,33,37,40,48,43,36,42,39,31,25,23,22,15,14,8,4,5,3,0,0,2,0,13,30,43,91,161,224,258,287,292,192,-5,-163,-241,-256,-229,-179,-123,-80,-44,-23,-13,-7,-8,-3,-2,2,6,5,10,12,12,8,3,1,3,4,2,7,5,8,9,9,7,4,1,2,-1,-1,2,0,-5,-6,-10,-15,-20,-24,-29,-33,-39,-37,-42,-42,-52,-55,-63,-69,-70,-76,-81,-88,-93,-89,-92,-92,-95,-94,-95,-91,-91,-82,-73,-61,-48,-31,-22,-7,2,11,20,34,41,49,59,68,74,73,77,75,75,79,76,79,78,79,85,86,87,84,84,85,83,78,80,81,83,82,89,87,90,89,88,84,80,79,79,79,87,88,88,85,87,85,79,75,81,76,76,75,83,84,88,81,81,81,76,71,75,73,80,78,79,84,80,79,82,79,82,78,77,81,84,85,85,81,81,83,81,74,71,76,74,81,80,81,81,80,82,82,89,91,95,101,101,107,111,112,118,110,105,107,106,101,96,90,88,81,76,73,74,73,67,70,66,71,67,76,89,105,142,203,265,299,333,347,253,60,-102,-191,-199,-177,-140,-82,-22,11,25,39,47,51,52,55,57,56,56,50,49,43,47,45,46,41,51,52,56,51,49,45,42,38,32,34,34,34,33,31,30,28,25,20,14,3,1,1,-5,-4,-11,-15,-25,-30,-39,-44,-49,-50,-63,-60,-63,-70,-76,-80,-84,-86,-91,-90,-89,-87,-83,-66,-56,-47,-41,-31,-28,-14,-4,10,12,21,25,38,40,44,44,47,44,46,43,31,29,31,32,33,33,34,28,23,23,24,26,26,26,22,20,23,26,22,19,18,17,14,14,18,12,16,15,16,18,8,0,1,1,8,12,12,6,7,4,1,1,6,3,3,8,3,7,8,9,7,5,3,1,-1,2,0,-1,0,3,6,12,10,5,-6,0,5,4,2,-2,1,3,2,2,7,7,3,2,11,13,15,25,30,33,37,36,33,25,22,27,23,19,12,11,7,0,0,-8,-16,-14,-16,-15,-9,0,2,14,22,47,90,157,217,247,283,260,118,-62,-195,-264,-263,-239,-206,-157,-116,-83,-67,-52,-41,-37,-28,-23,-28,-30,-35,-42,-41,-44,-40,-34,-39,-35,-31,-31,-33,-33,-38,-40,-47,-48,-38,-43,-45,-52,-50,-54,-56,-62,-63,-67,-70,-76,-80,-77,-84,-87,-98,-109,-118,-120,-125,-127,-137,-141,-137,-141,-150,-153,-157,-160,-158,-159,-164,-158,-148,-140,-130,-122,-109,-91,-74,-69,-66,-52,-46,-39,-34,-31,-26,-18,-26,-30,-36,-34,-36,-37,-36,-34,-32,-28,-30,-31,-34,-34,-38,-33,-36,-38,-37,-33,-33,-33,-34,-38,-40,-44,-46,-44,-43,-45,-44,-45,-40,-45,-48,-43,-46,-44,-44,-34,-31,-11,33,99,158,190,220,190,40,-156,-295,-344,-315,-260,-192,-136,-90,-69,-56,-44,-36,-39,-35,-29,-33,-35,-35,-41,-37,-40,-39,-40,-42,-42,-42,-43,-46,-53,-61,-64,-68,-66,-68,-69,-70,-67,-65,-72,-79,-85,-89,-93,-100,-103,-110,-108,-106,-112,-113,-115,-122,-132,-133,-142,-146,-146,-151,-149,-151,-139,-144,-138,-129,-122,-101,-88,-70,-56,-36,-18,-7,0,2,-1,-2,0,2,3,6,3,13,12,0,-2,-8,-10,-18,-21,-20,-24,-27,-28,-30,-30,-30,-34,-40,-40,-44,-40,-42,-42,-41,-39,-37,-44,-42,-45,-46,-46,-44,-49,-42,-41,-40,-45,-43,-47,-54,-60,-68,-68,-68,-60,-55,-50,-34,-23,16,82,146,193,229,236,128,-70,-236,-299,-301,-262,-206,-142,-92,-62,-48,-34,-31,-28,-29,-31,-28,-32,-33,-38,-44,-42,-42,-37,-38,-40,-42,-44,-45,-46,-49,-53,-53,-54,-52,-54,-53,-57,-63,-62,-66,-74,-79,-79,-85,-84,-92,-94,-97,-107,-112,-121,-128,-138,-146,-153,-160,-160,-170,-172,-175,-184,-187,-188,-170,-150,-138,-120,-97,-82,-76,-57,-44,-37,-29,-25,-18,-11,-7,-4,-1,5,-1,1,-1,-8,-9,-9,-8,-10,-6,-4,-5,-5,-9,-12,-14,-16,-12,-12,-15,-14,-13,-9,-10,-10,-18,-17,-20,-19,-21,-20,-11,0,2,4,7,5,25,69,116,151,178,198,114,-74,-240,-308,-293,-221,-149,-89,-45,-20,-2,7,7,6,8,3,0,-6,-7,-8,-6,-7,-6,-2,1,2,-2,-7,-11,-10,-9,-14,-17,-13,-14,-15,-16,-20,-27,-28,-32,-36,-41,-47,-46,-49,-51,-57,-63,-72,-78,-84,-93,-98,-106,-114,-120,-125,-129,-134,-134,-138,-137,-146,-141,-134,-121,-87,-54,-30,-7,5,11,24,31,34,36,42,48,47,51,44,42,45,33,32,31,34,33,32,37,31,36,33,30,23,20,19,21,22,20,21,21,22,22,19,14,12,13,13,13,15,22,16,28,71,131,181,212,233,181,-12,-205,-306,-325,-294,-237,-156,-88,-37,-2,10,17,16,21,27,24,21,22,19,14,10,8,4,8,3,4,3,0,2,2,-1,-7,-8,-5,-12,-11,-18,-17,-17,-21,-27,-30,-38,-42,-42,-48,-55,-56,-57,-60,-66,-69,-73,-80,-87,-90,-95,-98,-104,-105,-102,-102,-100,-98,-96,-97,-95,-87,-72,-44,-8,28,44,52,57,58,56,56,59,53,53,54,54,49,48,44,39,36,30,31,28,26,24,25,25,25,24,23,19,15,18,19,25,39,52,80,127,166,203,246,269,206,15,-180,-279,-278,-223,-166,-108,-69,-51,-41,-37,-26,-13,-9,-5,3,4,6,11,10,12,14,14,14,15,19,16,16,19,9,6,-1,-6,-8,-12,-13,-16,-16,-24,-24,-28,-34,-39,-42,-46,-51,-61,-61,-62,-62,-67,-69,-69,-73,-81,-83,-90,-88,-87,-76,-73,-73,-68,-66,-57,-52,-39,-16,-1,12,24,32,38,43,43,40,41,41,43,46,48,52,50,49,47,45,40,35,33,32,27,25,27,27,26,24,19,18,14,11,11,11,8,12,11,13,10,8,6,0,2,7,3,0,5,3,0,-8,-10,-14,-19,-22,-16,-2,12,27,65,129,212,262,308,304,178,-28,-185,-255,-256,-235,-185,-117,-63,-24,-12,-5,2,4,5,1,-4,1,1,0,-2,-8,-15,-19,-14,-17,-18,-19,-19,-26,-28,-42,-46,-44,-47,-45,-51,-54,-58,-54,-56,-63,-67,-70,-82,-88,-91,-100,-97,-95,-94,-98,-96,-93,-93,-84,-67,-62,-63,-64,-60,-56,-50,-41,-31,-26,-16,-10,-2,4,11,19,25,30,37,38,44,38,34,30,31,28,28,28,31,31,25,17,14,10,4,3,5,3,7,7,9,13,2,-3,-2,-3,-14,-17,-22,-23,-29,-34,-31,-29,-37,-45,-46,-45,-50,-39,-26,-10,-1,5,4,1,0,-1,1,3,2,9,14,9,8,6,7,2,0,16,31,48,85,145,210,245,272,253,119,-78,-227,-281,-268,-235,-185,-128,-82,-55,-40,-25,-21,-23,-17,-18,-11,-14,-16,-14,-11,-21,-30,-40,-42,-47,-54,-56,-51,-50,-50,-44,-38,-32,-22,-11,-11,-13,-18,-13,-8,-9,-16,-19,-28,-39,-43,-44,-52,-57,-58,-58,-61,-66,-73,-78,-80,-83,-82,-87,-91,-86,-79,-76,-77,-78,-72,-73,-61,-50,-40,-32,-22,-8,0,6,15,20,22,22,26,25,30,22,24,27,25,26,24,26,23,20,18,16,18,21,19,26,29,46,63,78,110,162,212,232,260,245,78,-149,-281,-302,-277,-223,-153,-86,-43,-21,-4,7,10,8,7,6,5,3,7,2,1,3,4,8,5,2,2,-1,-2,0,-3,-3,-2,-1,-6,-3,-8,-9,-19,-20,-26,-31,-30,-32,-34,-35,-42,-43,-44,-51,-56,-56,-58,-61,-63,-63,-66,-63,-57,-53,-54,-45,-40,-28,-21,-6,5,15,23,29,28,25,25,26,33,29,28,28,30,22,18,19,11,11,12,13,14,10,10,13,12,14,15,25,24,39,52,58,60,66,70,59,47,50,32,16,4,-4,-14,-20,-14,-15,-25,-27,-26,-27,-27,-26,-16,-16,-1,57,138,187,221,248,203,20,-168,-275,-313,-291,-246,-180,-130,-90,-72,-61,-38,-46,-51,-43,-39,-42,-49,-48,-43,-46,-46,-52,-47,-49,-53,-52,-57,-57,-56,-48,-53,-60,-60,-59,-67,-64,-61,-60,-77,-82,-76,-77,-73,-84,-101,-111,-115,-119,-114,-111,-115,-120,-116,-118,-132,-132,-133,-140,-137,-137,-136,-137,-127,-121,-110,-104,-107,-94,-81,-79,-67,-50,-32,-30,-20,-21,-13,-10,-9,-4,6,9,-2,-3,2,2,-11,-17,-11,-11,-10,-14,-9,-1,-1,5,14,14,6,1,6,5,0,0,2,1,5,19,22,4,9,15,4,-2,-6,-2,0,5,13,8,15,7,0,0,6,3,9,18,28,16,14,17,8,-4,-7,-2,2,5,8,16,5,-11,-12,-12,-10,-6,-8,-4,2,5,-4,-23,-22,-16,-23,-28,-29,-41,-35,-27,-30,-35,-43,-43,-42,-50,-56,-52,-54,-50,-42,-44,-42,-48,-45,-57,-71,-68,-62,-64,-59,-47,-57,-60,-59,-52,-44,-59,-71,-67,-45,-70,-79,-61,-56,-56,-47,-63,-74,-73,-60,-70,-86,-83,-72,-70,-64,-51,-42,-48,-57,-50,-43,-46,-44,-44,-48,-41,-39,-48,-49,-48,-64,-73,-77,-77,-79,-78,-73,-80,-87,-84,-82,-72,-64,-35,16,93,135,142,161,142,12,-175,-309,-363,-357,-317,-260,-199,-159,-130,-112,-107,-106,-104,-103,-102,-105,-99,-92,-92,-88,-104,-115,-119,-107,-112,-118,-106,-104,-109,-109,-110,-114,-116,-106,-120,-138,-126,-130,-127,-123,-126,-123,-122,-127,-139,-148,-140,-139,-143,-143,-146,-148,-139,-146,-152,-147,-152,-154,-157,-158,-159,-155,-146,-146,-154,-161,-156,-144,-135,-120,-117,-136,-130,-114,-86,-71,-69,-87,-84,-71,-51,-63,-68,-64,-58,-49,-67,-79,-83,-89,-80,-75,-73,-83,-82,-82,-76,-74,-74,-78,-78,-74,-76,-89,-77,-73,-87,-100,-95,-95,-98,-96,-94,-84,-82,-72,-79,-97,-91,-90,-60,-34,-75,-112,-105,-98,-96,-89,-69,-48,-73,-97,-86,-43,-3,9,69,104,136,127,-3,-200,-359,-407,-378,-310,-209,-154,-117,-95,-71,-64,-71,-60,-64,-52,-70,-91,-83,-80,-78,-75,-76,-63,-54,-58,-103,-101,-88,-70,-72,-95,-86,-73,-64,-59,-69,-116,-129,-126,-119,-113,-121,-122,-118,-115,-117,-125,-124,-118,-137,-150,-157,-158,-133,-122,-139,-168,-182,-172,-166,-174,-174,-152,-152,-139,-125,-120,-108,-106,-94,-81,-75,-76,-62,-57,-64,-52,-40,-36,-46,-54,-45,-30,-16,-23,-60,-82,-60,-41,-44,-47,-44,-65,-70,-56,-52,-60,-46,-49,-80,-83,-67,-55,-64,-66,-62,-51,-64,-72,-61,-52,-57,-46,-48,-72,-80,-61,-60,-84,-83,-73,-67,-60,-60,-56,-53,-50,-45,-67,-56,-50,-69,-78,-74,-63,-49,-39,-50,-61,-82,-83,-72,-61,-42,-54,-67,-60,-47,-47,-63,-56,-68,-60,-64,-58,-29,-37,-37,-6,1,18,24,28,33,7,-3,-12,-20,-16,-25,-33,-41,-58,-66,-57,-63,-67,-53,-50,-22,-16,-50,-67,-47,-23,28,67,98,126,156,158,51,-132,-282,-340,-350,-304,-203,-156,-153,-109,-77,-61,-48,-58,-68,-66,-74,-63,-55,-73,-67,-66,-74,-72,-64,-65,-78,-73,-50,-60,-80,-78,-66,-44,-81,-102,-81,-60,-70,-105,-122,-120,-109,-106,-107,-109,-104,-104,-111,-121,-119,-117,-128,-133,-132,-125,-118,-118,-130,-132,-151,-147,-154,-166,-162,-142,-137,-143,-143,-158,-157,-131,-119,-110,-112,-104,-99,-78,-64,-53,-60,-70,-62,-67,-67,-52,-39,-37,-34,-25,-27,-24,-28,-25,-13,-32,-49,-44,-47,-43,-32,-40,-46,-40,-41,-45,-48,-40,-32,-38,-44,-38,-37,-34,-36,-47,-58,-53,-37,-34,-43,-41,-40,-45,-48,-57,-62,-56,-45,-51,-56,-48,-52,-48,-42,-47,-49,-49,-45,-53,-48,-48,-41,-42,-39,-49,-55,-49,-52,-61,-64,-57,-46,-36,-53,-56,-50,-46,-47,-57,-57,-49,-42,-43,-51,-54,-51,-58,-61,-52,-56,-58,-54,-52,-58,-64,-61,-50,-46,-44,-48,-58,-65,-65,-60,-56,-58,-61,-58,-57,-47,-47,-64,-66,-59,-57,-51,-57,-50,-45,-51,-60,-57,-46,-24,-15,-21,-32,-24,-10,-8,-3,1,4,-8,-22,-28,-37,-42,-47,-53,-59,-74,-69,-63,-67,-72,-64,-55,-36,-20,24,78,118,143,163,152,41,-148,-298,-361,-366,-319,-243,-169,-125,-99,-82,-74,-70,-92,-92,-85,-67,-61,-64,-68,-68,-80,-86,-75,-72,-77,-72,-70,-71,-88,-90,-81,-78,-79,-81,-88,-85,-92,-101,-92,-89,-98,-105,-103,-100,-109,-115,-121,-123,-120,-126,-137,-128,-131,-130,-137,-149,-152,-143,-148,-157,-160,-155,-149,-150,-145,-147,-142,-132,-130,-122,-102,-98,-94,-76,-74,-74,-70,-73,-74,-73,-68,-68,-56,-52,-55,-48,-57,-62,-46,-47,-59,-79,-79,-64,-64,-63,-61,-62,-74,-70,-56,-60,-74,-63,-61,-54,-52,-56,-61,-59,-63,-76,-85,-78,-66,-62,-62,-62,-60,-56,-57,-60,-60,-59,-59,-53,-50,-22,14,59,96,123,105,-21,-208,-346,-407,-386,-336,-246,-168,-120,-87,-68,-57,-49,-55,-62,-56,-51,-43,-40,-47,-57,-70,-60,-58,-60,-56,-47,-48,-64,-69,-60,-53,-54,-64,-72,-83,-80,-81,-71,-74,-76,-82,-94,-98,-89,-95,-105,-108,-107,-104,-109,-105,-92,-109,-123,-133,-141,-131,-126,-133,-126,-120,-124,-129,-123,-113,-107,-98,-84,-73,-68,-60,-48,-31,-20,-1,-8,-33,-48,-34,-26,-31,-35,-31,-32,-33,-34,-31,-42,-42,-32,-38,-33,-18,-20,-35,-40,-57,-71,-68,-55,-52,-51,-63,-67,-54,-55,-58,-52,-51,-52,-58,-59,-53,-47,-52,-63,-58,-53,-56,-64,-72,-69,-69,-62,-66,-62,-56,-47,-42,-62,-67,-64,-60,-50,-46,-37,-26,-11,7,13,9,17,-7,-24,-36,-35,-42,-55,-64,-68,-64,-64,-65,-76,-91,-86,-56,-43,-40,-6,50,98,116,126,116,48,-130,-302,-388,-426,-387,-307,-208,-143,-104,-97,-97,-90,-89,-78,-48,-49,-79,-87,-79,-84,-89,-93,-91,-100,-112,-98,-91,-91,-91,-91,-99,-102,-105,-100,-96,-98,-110,-115,-89,-76,-113,-112,-107,-137,-142,-142,-156,-152,-150,-141,-134,-137,-141,-156,-160,-149,-144,-153,-128,-110,-159,-179,-163,-160,-170,-167,-161,-147,-140,-141,-132,-120,-110,-111,-98,-82,-66,-67,-72,-79,-81,-77,-70,-74,-41,-19,-47,-87,-86,-64,-63,-84,-99,-99,-90,-98,-98,-89,-86,-74,-76,-80,-81,-81,-84,-84,-81,-75,-66,-64,-69,-82,-75,-74,-76,-88,-96,-94,-88,-82,-77,-73,-86,-103,-101,-90,-86,-90,-89,-86,-74,-75,-68,-76,-89,-88,-83,-69,-66,-83,-77,-82,-88,-85,-93,-88,-84,-83,-58,-64,-96,-114,-103,-91,-77,-74,-77,-96,-96,-89,-101,-100,-75,-50,-59,-73,-56,-55,-84,-113,-125,-124,-113,-107,-100,-102,-99,-101,-103,-104,-101,-94,-96,-98,-96,-82,-74,-73,-97,-102,-86,-106,-141,-143,-124,-112,-108,-105,-98,-93,-92,-87,-86,-88,-96,-90,-77,-69,-60,-65,-71,-68,-69,-72,-63,-61,-74,-74,-84,-91,-85,-99,-109,-108,-106,-116,-101,-81,-102,-106,-83,-68,-53,-12,47,97,138,170,109,-61,-231,-342,-367,-349,-317,-268,-223,-194,-166,-136,-114,-114,-120,-117,-112,-106,-94,-95,-103,-104,-112,-112,-110,-107,-105,-104,-101,-102,-98,-107,-124,-117,-105,-114,-121,-122,-122,-117,-121,-125,-128,-129,-125,-127,-116,-102,-98,-113,-121,-124,-114,-113,-130,-127,-117,-118,-118,-114,-117,-91,-68,-103,-141,-131,-122,-111,-79,-64,-66,-75,-63,-48,-32,-31,-30,-36,-30,-29,-32,-28,-26,-36,-47,-47,-36,-43,-68,-80,-70,-66,-65,-68,-84,-73,-71,-79,-89,-81,-72,-78,-86,-90,-86,-79,-76,-80,-79,-80,-87,-91,-95,-94,-90,-86,-84,-79,-76,-75,-75,-72,-74,-82,-81,-67,-58,-53,-40,-26,31,107,185,219,108,-82,-236,-305,-318,-299,-263,-243,-217,-166,-108,-82,-84,-76,-74,-68,-56,-53,-49,-48,-47,-60,-58,-30,-48,-83,-72,-88,-82,-75,-77,-82,-87,-96,-90,-83,-78,-86,-97,-98,-84,-75,-84,-109,-122,-115,-106,-121,-116,-112,-119,-114,-121,-134,-139,-133,-124,-127,-138,-151,-148,-131,-120,-119,-116,-120,-111,-94,-90,-73,-54,-34,-20,-8,4,15,26,7,-4,-4,-1,-8,-12,-5,-13,-39,-36,-51,-54,-40,-41,-64,-72,-69,-62,-53,-55,-52,-60,-70,-71,-72,-63,-58,-66,-56,-56,-56,-52,-61,-64,-73,-76,-75,-74,-61,-62,-60,-62,-69,-72,-64,-56,-66,-76,-70,-66,-40,-42,-53,-60,-44,-34,-10,41,118,180,206,216,131,-36,-201,-296,-335,-321,-293,-232,-150,-118,-90,-62,-58,-58,-31,-44,-76,-64,-48,-57,-70,-55,-44,-32,-27,-50,-66,-64,-62,-54,-39,-36,-48,-52,-64,-64,-61,-55,-61,-65,-66,-74,-78,-72,-65,-69,-67,-69,-68,-83,-95,-94,-88,-94,-96,-89,-88,-91,-93,-89,-91,-98,-94,-90,-89,-102,-96,-76,-62,-64,-54,-26,-40,-52,-52,-54,-53,-48,-36,-29,-22,-17,-16,-24,-43,-33,-31,-26,-20,-4,-5,-28,-45,-46,-43,-41,-50,-43,-39,-46,-44,-50,-51,-46,-30,-24,-32,-48,-57,-52,-42,-37,-34,-39,-35,-34,-56,-79,-72,-46,-44,-68,-69,-61,-54,-49,-46,-43,-44,-41,-42,-51,-59,-80,-74,-69,-59,-47,-56,-56,-56,-54,-51,-65,-65,-51,-46,-16,-11,-73,-103,-82,-60,-56,-61,-61,-52,-32,-38,-64,-72,-85,-79,-67,-57,-65,-65,-67,-58,-59,-62,-56,-46,-16,-35,-73,-74,-63,-45,-37,-51,-86,-86,-63,-54,-56,-64,-52,-67,-76,-76,-80,-70,-57,-52,-31,-13,-30,-51,-48,-32,-3,9,-6,-2,-2,-30,-49,-54,-45,-32,-34,-54,-72,-64,-57,-59,-65,-74,-77,-66,-31,-46,-59,-8,62,122,141,152,156,73,-104,-252,-328,-333,-311,-249,-178,-150,-140,-120,-97,-82,-72,-68,-85,-83,-78,-83,-80,-83,-84,-69,-59,-74,-79,-66,-68,-100,-109,-103,-88,-85,-85,-97,-97,-88,-72,-66,-62,-72,-89,-106,-106,-100,-98,-114,-114,-96,-95,-114,-131,-127,-114,-120,-124,-141,-156,-147,-136,-137,-132,-136,-147,-151,-136,-130,-145,-153,-137,-118,-94,-82,-80,-107,-100,-65,-57,-77,-79,-73,-58,-48,-37,-41,-53,-62,-62,-42,-44,-58,-62,-71,-66,-54,-54,-54,-54,-43,-54,-78,-83,-88,-93,-87,-78,-75,-69,-71,-76,-71,-72,-56,-38,-73,-105,-103,-97,-98,-95,-84,-88,-93,-91,-85,-76,-70,-58,-55,-43,-63,-82,-27,51,89,115,115,46,-137,-298,-375,-387,-353,-267,-182,-130,-99,-87,-57,-48,-56,-50,-55,-51,-41,-57,-72,-70,-67,-59,-55,-57,-62,-84,-72,-71,-69,-62,-79,-113,-104,-73,-75,-92,-88,-84,-80,-101,-120,-121,-126,-132,-134,-112,-95,-113,-136,-137,-140,-135,-108,-103,-119,-125,-128,-138,-144,-136,-133,-127,-114,-101,-105,-83,-88,-104,-96,-79,-73,-75,-60,-48,-47,-41,-28,-24,-26,-39,-55,-36,-17,-34,-67,-75,-62,-41,-41,-54,-68,-62,-54,-75,-82,-72,-77,-74,-64,-61,-66,-67,-76,-79,-85,-86,-78,-69,-61,-70,-75,-71,-78,-72,-61,-61,-62,-62,-49,-17,-10,-36,-48,-23,14,21,-22,-45,-24,-2,-2,27,103,181,228,235,226,114,-113,-286,-356,-340,-300,-240,-192,-149,-111,-83,-70,-60,-47,-44,-64,-80,-77,-73,-60,-41,-22,-37,-69,-68,-53,-49,-56,-72,-85,-84,-78,-68,-56,-46,-51,-71,-93,-95,-83,-83,-82,-65,-55,-61,-78,-67,-54,-48,-32,-39,-68,-62,-64,-67,-51,-62,-94,-94,-80,-76,-92,-106,-111,-141,-144,-116,-88,-76,-82,-75,-55,-48,-51,-58,-64,-59,-45,-22,-26,-44,-45,-39,-41,-39,-16,-10,-45,-56,-67,-70,-55,-48,-50,-68,-72,-51,-30,-17,-62,-80,-61,-50,-67,-68,-60,-55,-59,-54,-52,-49,-29,-20,-27,8,82,144,173,184,183,100,-91,-268,-352,-330,-252,-157,-110,-111,-84,-71,-62,-52,-49,-49,-44,-34,-26,-15,-30,-55,-74,-67,-68,-73,-70,-74,-72,-64,-58,-58,-72,-65,-59,-62,-54,-51,-53,-50,-75,-105,-96,-79,-88,-98,-89,-93,-107,-104,-76,-71,-118,-126,-127,-133,-143,-142,-140,-146,-134,-113,-125,-156,-138,-112,-116,-122,-104,-69,-48,-42,-31,-2,-17,-19,7,1,-2,2,5,-8,-8,-3,-16,0,7,-10,-40,-38,-23,-16,-24,-26,-3,-14,-30,3,40,14,-11,33,86,169,195,190,169,40,-128,-257,-324,-293,-269,-245,-176,-100,-44,-42,-17,-6,-31,-40,-40,-18,-17,-25,-20,-7,-13,-19,-32,-59,-31,4,-23,-56,-45,-27,-15,-45,-66,-32,-16,-33,-29,-40,-43,-50,-36,-41,-77,-83,-75,-75,-63,-35,-62,-108,-101,-69,-73,-82,-70,-55,-50,-75,-109,-97,-69,-76,-56,-27,-64,-52,-16,-16,-20,-15,-22,-29,-25,8,65,52,-23,-13,3,-8,-13,-26,-29,-45,-49,8,43,5,-27,-44,-35,-36,-41,-19,-15,-17,-15,-28,-12,-45,-83,-64,-38,-33,-38,-40,-58,-47,-18,15,-9,-56,-64,-2,18,-71,-114,-88,-73,-50,-30,-23,-18,-44,-58,-47,-27,0,12,-37,-64,-94,-91,-58,-6,-2,-56,-94,-92,-66,-26,-21,-56,-52,-24,0,-24,-79,-84,-60,-40,3,-24,-84,-75,-51,-55,-32,-13,9,35,24,20,32,33,11,-4,20,9,-7,-9,-49,-77,-58,-36,-51,-72,-51,-65,-79,-60,-41,-22,26,88,133,149,154,123,-10,-189,-313,-357,-354,-297,-205,-147,-124,-105,-75,-51,-51,-32,-16,-27,-35,-35,-50,-79,-89,-82,-74,-70,-56,-56,-59,-56,-55,-53,-51,-52,-59,-63,-57,-58,-59,-60,-50,-57,-76,-83,-72,-68,-67,-77,-78,-76,-64,-62,-68,-81,-88,-91,-87,-81,-94,-104,-94,-99,-102,-97,-94,-87,-90,-88,-80,-71,-67,-57,-56,-63,-69,-66,-48,-29,-39,-49,-43,-22,-13,-7,-6,-6,0,4,9,16,10,3,9,12,12,3,0,0,0,1,0,6,8,8,13,17,10,15,16,11,0,2,7,9,15,22,21,18,14,11,10,10,14,20,19,23,41,39,22,12,8,-3,-4,4,8,20,21,19,25,27,25,17,11,13,15,22,25,24,29,27,24,22,19,14,12,15,21,16,15,24,33,28,22,20,17,6,11,25,23,19,22,29,24,13,10,18,26,25,15,6,14,22,24,20,25,26,8,6,14,23,23,20,16,18,15,15,15,10,7,9,13,12,9,16,19,12,10,10,11,20,25,38,47,51,52,49,56,62,66,45,29,42,53,47,41,33,33,29,21,14,6,0,-5,0,-2,3,9,15,27,41,65,103,144,174,189,184,132,-16,-195,-285,-303,-264,-190,-122,-68,-35,-14,-8,-4,1,0,1,3,0,-3,-5,-1,0,-2,0,5,2,1,3,0,-2,-4,-9,-8,-4,1,4,-13,-26,-18,-17,-21,-19,-21,-23,-22,-24,-22,-22,-32,-36,-40,-42,-43,-47,-51,-58,-57,-56,-54,-53,-53,-54,-57,-62,-64,-63,-60,-60,-55,-48,-41,-39,-35,-31,-26,-14,-8,2,18,29,33,34,42,42,38,34,29,28,26,25,20,22,19,21,19,22,22,15,14,17,13,19,17,21,19,22,22,14,15,14,15,13,13,21,26,26,26,24,22,17,16,18,21,20,23,25,25,33,34,31,35,43,48,68,115,169,204,209,163,3,-169,-256,-269,-231,-169,-80,-17,20,41,46,48,50,52,49,41,35,36,42,42,45,37,33,34,26,20,16,12,10,8,9,10,9,5,2,1,-3,-10,-11,-17,-19,-24,-24,-23,-27,-32,-37,-44,-50,-55,-58,-58,-59,-61,-61,-59,-65,-73,-74,-77,-70,-68,-64,-54,-48,-41,-31,-22,-16,-10,2,7,10,15,24,27,35,39,35,31,25,26,23,28,23,25,22,22,21,26,25,25,31,29,28,25,27,30,29,23,16,18,20,17,19,19,20,12,16,14,22,28,30,28,26,19,18,21,19,23,28,32,30,19,29,30,26,22,17,19,20,26,31,32,31,32,31,24,23,22,19,23,25,26,30,31,31,24,19,23,28,28,22,20,28,31,37,37,33,36,44,59,81,87,88,99,112,104,93,90,73,58,53,43,35,22,20,12,7,9,11,9,9,10,18,34,47,74,124,192,239,268,282,223,56,-138,-260,-271,-245,-206,-160,-106,-56,-26,-13,-7,-2,6,8,10,-1,-10,-3,7,7,0,-5,-3,2,-1,-1,0,1,0,-1,3,0,-7,-7,-2,-11,-31,-32,-35,-31,-27,-26,-29,-31,-38,-32,-32,-30,-29,-31,-31,-38,-40,-38,-41,-41,-38,-37,-38,-42,-36,-40,-40,-38,-36,-31,-26,-26,-17,-10,-5,-3,-6,-4,6,16,22,19,14,18,17,17,18,19,20,22,21,16,14,9,9,13,13,12,10,11,8,11,7,1,-3,4,5,8,10,5,12,8,5,0,-2,-11,0,12,11,2,-10,-17,-9,-15,-16,-15,-7,-9,-7,-3,-3,-7,-3,0,-5,-2,-8,-10,-9,-8,-10,-12,-18,-20,-20,-18,-18,-18,-17,-14,-14,-19,-17,-17,-12,-10,-14,-20,-24,-20,-22,-21,-19,-16,-7,-7,-11,-14,-16,-15,-14,-13,-17,-20,-19,-16,-10,-16,-12,-7,-10,-11,-12,-19,-20,-20,-19,-10,-12,-9,-8,-9,-16,-12,-9,-19,-24,-19,-18,-15,-10,-10,-10,-10,-18,-10,0,-6,-8,-6,17,35,49,59,59,55,57,36,20,9,-5,-12,-13,-12,-12,-16,-17,-30,-39,-32,-16,7,24,37,77,133,185,215,224,206,110,-65,-210,-279,-275,-244,-213,-162,-114,-74,-48,-41,-46,-49,-45,-38,-38,-36,-26,-25,-28,-30,-39,-40,-40,-39,-35,-37,-32,-35,-35,-46,-47,-49,-50,-48,-52,-48,-47,-49,-55,-65,-75,-77,-80,-78,-81,-81,-86,-95,-96,-101,-103,-103,-108,-108,-110,-115,-115,-117,-115,-113,-112,-111,-117,-123,-123,-137,-129,-128,-123,-117,-109,-106,-111,-111,-99,-92,-85,-74,-62,-50,-47,-33,-14,-7,0,-3,-3,-8,-12,-17,-25,-20,-16,-14,-17,-18,-16,-20,-25,-23,-18,-12,-8,-11,-31,-37,-36,-36,-34,-38,-33,-32,-38,-27,-22,-36,-34,-26,-24,-29,-28,-22,-23,-31,-27,-24,-16,9,55,114,148,166,143,48,-132,-282,-341,-322,-268,-189,-118,-73,-53,-36,-27,-25,-25,-31,-26,-22,-24,-22,-26,-28,-29,-32,-33,-36,-32,-30,-31,-32,-34,-36,-40,-38,-43,-45,-43,-49,-52,-51,-52,-52,-53,-54,-59,-77,-81,-82,-86,-93,-92,-96,-97,-98,-105,-114,-128,-133,-137,-136,-135,-133,-128,-128,-134,-128,-125,-116,-104,-90,-85,-84,-76,-65,-50,-36,-30,-25,-25,-25,-20,-19,-16,-11,-11,-12,-8,-9,-10,-17,-24,-22,-22,-24,-22,-20,-15,-10,-14,-15,-19,-27,-26,-24,-29,-25,-24,-24,-20,-22,-27,-22,-26,-27,-25,-26,-23,-25,-23,-21,-12,-19,-31,-29,-29,-28,-28,-28,-27,-25,-27,-28,-23,-18,-18,-29,-24,-28,-33,-32,-24,-26,-29,-27,-26,-27,-28,-32,-36,-33,-35,-25,-18,-32,-34,-29,-22,-17,-15,-7,7,30,48,51,53,49,47,43,35,18,5,-2,-9,-19,-24,-31,-27,-28,-38,-39,-44,-41,-34,-20,-6,25,65,105,133,137,116,45,-110,-261,-329,-341,-301,-222,-156,-100,-73,-53,-40,-44,-41,-32,-37,-44,-43,-37,-35,-39,-52,-51,-50,-49,-54,-46,-40,-36,-42,-52,-60,-59,-61,-57,-61,-66,-68,-66,-66,-70,-71,-68,-76,-96,-107,-107,-106,-104,-103,-103,-110,-106,-109,-113,-122,-128,-128,-121,-128,-131,-131,-134,-137,-139,-137,-136,-136,-134,-132,-128,-117,-111,-98,-87,-80,-70,-72,-75,-70,-56,-56,-49,-42,-40,-33,-30,-28,-28,-30,-23,-27,-24,-21,-25,-26,-28,-28,-36,-39,-39,-33,-30,-34,-32,-29,-31,-29,-29,-27,-30,-40,-43,-44,-39,-36,-27,-30,-40,-39,-40,-43,-37,-39,-38,-40,-36,-35,-31,-29,-29,-40,-46,-45,-40,-39,-44,-40,-40,-38,-34,-37,-37,-36,-38,-39,-41,-43,-44,-41,-35,-36,-38,-39,-37,-40,-41,-44,-43,-42,-37,-36,-37,-41,-37,-31,-39,-43,-41,-34,-41,-50,-47,-45,-40,-39,-38,-42,-45,-47,-46,-48,-41,-43,-41,-39,-39,-44,-45,-46,-49,-55,-64,-66,-61,-58,-57,-63,-64,-64,-62,-56,-56,-48,-32,-21,-21,-16,-19,-13,-7,-14,-18,-30,-34,-27,-28,-26,-25,-34,-39,-47,-51,-53,-58,-67,-67,-59,-49,-47,-41,-31,-15,18,59,92,117,123,97,-4,-176,-309,-360,-354,-301,-219,-161,-113,-90,-76,-63,-58,-54,-50,-54,-61,-63,-66,-64,-58,-62,-57,-58,-53,-47,-56,-60,-68,-74,-72,-68,-65,-66,-67,-70,-70,-77,-83,-88,-89,-78,-88,-101,-103,-93,-92,-98,-106,-109,-112,-123,-124,-126,-126,-128,-128,-133,-139,-136,-130,-128,-136,-147,-146,-144,-141,-148,-148,-146,-147,-143,-139,-128,-118,-117,-103,-92,-82,-72,-66,-60,-46,-25,-14,-38,-55,-51,-40,-41,-44,-45,-40,-35,-38,-44,-50,-47,-43,-40,-42,-39,-30,-36,-50,-51,-44,-44,-39,-38,-43,-42,-40,-39,-40,-39,-32,-28,-31,-41,-46,-43,-38,-34,-34,-30,-16,-4,-18,-38,-39,-3,46,81,99,87,-22,-194,-319,-368,-364,-331,-255,-167,-111,-77,-60,-40,-30,-37,-39,-34,-31,-34,-44,-45,-43,-38,-34,-43,-46,-46,-43,-42,-52,-51,-51,-58,-65,-69,-59,-56,-58,-56,-64,-69,-75,-75,-76,-82,-89,-87,-73,-74,-81,-89,-107,-117,-120,-120,-122,-129,-124,-121,-116,-119,-124,-122,-122,-118,-110,-98,-82,-74,-65,-61,-59,-44,-32,-30,-30,-34,-28,-30,-25,-20,-19,-28,-37,-39,-39,-37,-37,-38,-34,-34,-32,-32,-27,-26,-35,-44,-45,-48,-44,-44,-41,-44,-42,-25,-39,-53,-60,-55,-57,-50,-48,-46,-50,-48,-48,-46,-41,-37,-39,-44,-32,-27,-16,4,23,33,30,31,27,34,32,10,-13,-36,-41,-47,-52,-58,-57,-61,-58,-57,-60,-52,-49,-40,-22,2,48,96,119,123,102,4,-172,-310,-370,-376,-323,-252,-184,-130,-105,-91,-74,-70,-66,-66,-73,-72,-64,-64,-68,-66,-68,-59,-63,-76,-73,-74,-80,-80,-78,-76,-62,-68,-76,-82,-91,-91,-84,-96,-106,-108,-108,-113,-110,-113,-119,-115,-118,-121,-124,-124,-125,-126,-128,-135,-143,-143,-136,-142,-140,-140,-139,-135,-135,-133,-137,-137,-135,-127,-119,-115,-104,-92,-83,-79,-68,-68,-62,-58,-58,-57,-59,-55,-49,-42,-38,-36,-36,-35,-43,-46,-53,-54,-51,-49,-51,-51,-55,-55,-52,-55,-57,-61,-62,-63,-58,-54,-48,-50,-55,-57,-60,-54,-56,-58,-58,-52,-52,-61,-61,-58,-55,-59,-66,-69,-62,-60,-63,-55,-52,-49,-54,-58,-62,-60,-60,-57,-59,-60,-58,-57,-51,-53,-54,-54,-60,-58,-56,-54,-52,-55,-61,-58,-55,-46,-49,-57,-60,-62,-59,-56,-52,-49,-43,-44,-56,-57,-54,-56,-54,-51,-49,-53,-53,-56,-57,-52,-56,-58,-57,-60,-60,-57,-57,-51,-48,-49,-48,-46,-52,-58,-59,-58,-55,-59,-52,-52,-55,-57,-56,-60,-58,-55,-58,-54,-52,-41,-28,-21,-18,-24,-20,-22,-20,-16,-18,-18,-15,-11,-18,-24,-30,-43,-53,-58,-62,-66,-66,-65,-59,-60,-63,-56,-44,-35,-23,13,64,109,133,136,85,-51,-220,-320,-362,-345,-308,-229,-167,-122,-92,-71,-63,-74,-70,-62,-67,-69,-64,-59,-57,-61,-63,-66,-60,-58,-60,-64,-71,-73,-69,-69,-70,-65,-61,-60,-76,-77,-77,-71,-74,-81,-92,-83,-81,-82,-79,-85,-80,-85,-90,-94,-95,-90,-93,-92,-92,-83,-82,-75,-75,-80,-92,-86,-87,-79,-73,-67,-56,-51,-41,-36,-35,-32,-27,-20,-15,-16,-5,1,0,-3,-8,-10,-11,-11,-15,-16,-29,-36,-35,-37,-37,-38,-38,-41,-41,-42,-42,-48,-46,-44,-36,-39,-40,-42,-48,-54,-52,-55,-52,-52,-51,-49,-48,-50,-48,-36,-35,-42,-49,-50,-54,-60,-54,-55,-47,-49,-46,-50,-51,-48,-48,-37,19,92,152,179,102,-77,-236,-321,-339,-308,-267,-226,-173,-111,-70,-46,-40,-40,-33,-31,-28,-31,-41,-41,-35,-33,-40,-49,-46,-44,-48,-53,-46,-36,-38,-47,-47,-40,-40,-45,-54,-59,-63,-64,-62,-67,-67,-66,-61,-64,-71,-77,-81,-91,-105,-113,-121,-126,-122,-113,-114,-113,-109,-110,-112,-112,-109,-106,-102,-86,-74,-57,-45,-42,-35,-24,-9,1,0,-9,-6,-3,3,-2,0,-8,-10,-10,-22,-26,-28,-31,-36,-31,-29,-17,-18,-29,-30,-28,-26,-28,-31,-30,-31,-30,-27,-36,-41,-46,-44,-44,-47,-50,-52,-56,-52,-47,-37,-29,-29,-36,-40,-37,-23,-19,-15,-3,13,9,10,34,78,138,198,236,247,186,22,-153,-265,-298,-277,-247,-199,-147,-98,-74,-64,-49,-41,-38,-34,-30,-29,-34,-40,-35,-28,-34,-34,-30,-30,-42,-49,-63,-64,-56,-50,-47,-36,-38,-45,-48,-52,-43,-39,-39,-47,-50,-49,-47,-48,-48,-50,-58,-63,-54,-47,-60,-68,-71,-69,-73,-79,-83,-75,-70,-81,-91,-96,-96,-84,-77,-65,-56,-54,-51,-37,-23,-24,-30,-27,-22,-23,-21,-17,-12,-14,-22,-28,-31,-44,-52,-55,-53,-52,-54,-51,-52,-44,-31,-23,-20,-27,-21,-9,1,5,11,13,10,8,4,2,-1,-6,-7,-8,-6,-9,-7,0,-7,-12,-22,-23,-21,-20,-25,-28,-28,-17,-15,-16,-16,-20,-24,-28,-19,-16,-12,-10,-7,0,8,23,59,112,174,213,216,159,9,-164,-264,-290,-286,-252,-194,-134,-70,-39,-24,-16,-3,1,3,1,3,6,0,-2,-2,0,-2,-9,-16,-13,-7,-2,-14,-25,-27,-22,-25,-28,-27,-27,-21,-23,-40,-46,-48,-49,-50,-53,-60,-64,-69,-60,-62,-71,-78,-79,-82,-93,-93,-91,-94,-92,-100,-108,-108,-111,-115,-115,-111,-89,-71,-59,-44,-28,-19,-10,0,6,5,5,4,1,0,5,15,16,16,15,15,17,15,7,2,4,10,10,9,8,9,6,4,7,4,6,1,-6,0,3,1,4,-1,-10,-10,-7,-6,-8,-10,-6,-2,-1,3,6,9,28,75,127,164,182,160,67,-96,-245,-306,-290,-250,-188,-113,-62,-36,-17,0,14,17,19,8,-1,-4,-7,-2,4,1,0,-4,1,-6,-13,-12,-11,-20,-27,-21,-19,-15,-13,-12,-19,-27,-36,-41,-32,-37,-44,-45,-48,-51,-57,-61,-63,-69,-80,-79,-82,-83,-88,-89,-91,-94,-96,-97,-109,-114,-124,-121,-119,-110,-98,-81,-60,-37,-16,2,5,7,19,27,28,27,27,32,31,33,33,34,22,11,6,4,4,7,10,2,2,4,4,0,-2,7,27,49,58,76,110,143,155,153,105,-37,-211,-321,-350,-327,-265,-186,-112,-54,-29,-15,-7,-5,-7,-6,0,3,4,2,1,0,0,-4,0,4,10,10,17,24,24,28,20,21,22,17,14,11,9,0,-6,-6,-12,-24,-38,-54,-64,-69,-71,-83,-92,-96,-96,-96,-95,-95,-98,-98,-97,-90,-93,-93,-91,-81,-79,-73,-55,-55,-46,-40,-33,-26,-25,-15,-4,-1,-3,-8,-7,-8,-20,-24,-28,-28,-29,-24,-20,-20,-21,-21,-21,-28,-30,-26,-27,-27,-31,-30,-20,-19,-12,4,24,41,72,107,143,164,163,126,-16,-211,-321,-354,-328,-269,-186,-117,-80,-59,-34,-17,-17,-18,-13,-11,-32,-36,-34,-29,-25,-21,-26,-24,-24,-27,-29,-30,-29,-28,-32,-34,-32,-28,-32,-38,-42,-44,-53,-55,-62,-58,-60,-70,-64,-59,-63,-66,-67,-73,-76,-78,-78,-80,-83,-80,-74,-71,-73,-72,-76,-74,-70,-65,-55,-48,-41,-29,-23,-22,-19,-18,-20,-16,-14,-14,-9,-8,-13,-15,-14,-17,-15,-24,-16,-22,-24,-23,-27,-22,-21,-21,-20,-24,-35,-40,-43,-38,-36,-33,-28,-25,-25,-30,-40,-43,-39,-39,-41,-40,-40,-34,-30,-25,-23,-14,-5,4,20,30,40,48,42,36,29,19,-1,-14,-22,-35,-43,-54,-57,-54,-53,-57,-57,-55,-54,-56,-53,-45,-31,-24,-10,19,62,104,116,111,59,-74,-230,-328,-354,-333,-276,-204,-144,-103,-80,-66,-64,-60,-60,-56,-55,-54,-51,-56,-53,-53,-56,-62,-61,-60,-62,-59,-62,-64,-65,-64,-62,-67,-71,-77,-77,-82,-88,-87,-84,-91,-86,-93,-94,-103,-113,-113,-119,-120,-113,-111,-113,-127,-140,-143,-146,-143,-141,-134,-119,-122,-145,-159,-167,-163,-143,-135,-127,-131,-133,-119,-108,-93,-90,-82,-72,-65,-59,-55,-61,-68,-54,-48,-38,-38,-38,-46,-54,-55,-52,-47,-46,-52,-52,-45,-32,-30,-52,-61,-49,-51,-55,-62,-71,-76,-65,-57,-52,-50,-57,-63,-66,-54,-44,-38,-63,-76,-67,-64,-74,-76,-72,-80,-78,-71,-69,-79,-93,-78,-51,-49,-66,-84,-80,-72,-72,-76,-81,-85,-85,-73,-62,-56,-51,-56,-63,-52,-56,-58,-61,-64,-61,-64,-74,-82,-74,-59,-59,-71,-83,-81,-79,-74,-78,-71,-61,-47,-45,-56,-69,-73,-77,-78,-73,-73,-66,-62,-67,-76,-64,-70,-68,-70,-68,-61,-58,-74,-73,-65,-72,-78,-81,-80,-73,-64,-64,-64,-66,-70,-70,-77,-78,-71,-67,-69,-74,-74,-75,-60,-46,-40,-47,-58,-59,-56,-54,-52,-42,-28,-13,-8,-16,-35,-63,-82,-86,-83,-87,-87,-80,-86,-87,-82,-80,-80,-75,-75,-80,-65,-46,-8,36,76,95,107,86,-20,-188,-319,-370,-366,-328,-266,-204,-150,-111,-94,-88,-93,-99,-104,-97,-95,-88,-84,-82,-80,-76,-75,-73,-74,-79,-96,-92,-85,-80,-73,-70,-86,-105,-108,-100,-96,-97,-103,-105,-109,-104,-95,-104,-124,-123,-125,-125,-125,-121,-118,-112,-104,-104,-118,-134,-137,-138,-136,-132,-147,-143,-133,-125,-129,-130,-124,-134,-141,-139,-142,-138,-136,-124,-102,-90,-108,-110,-87,-64,-53,-62,-93,-74,-46,-23,-16,-19,-33,-65,-83,-72,-60,-58,-64,-64,-63,-71,-70,-59,-48,-52,-63,-62,-57,-54,-69,-94,-84,-68,-58,-58,-68,-82,-77,-73,-79,-69,-56,-66,-75,-70,-62,-54,-61,-69,-80,-84,-81,-78,-63,-46,-37,-51,-58,-50,-16,24,51,78,92,78,11,-142,-290,-357,-360,-305,-211,-153,-130,-117,-101,-92,-72,-61,-66,-89,-102,-90,-71,-69,-77,-90,-97,-94,-78,-72,-68,-85,-99,-104,-104,-109,-120,-116,-114,-110,-108,-104,-102,-114,-123,-128,-140,-144,-135,-145,-158,-156,-159,-151,-153,-166,-186,-198,-183,-169,-171,-181,-180,-172,-165,-167,-175,-169,-158,-161,-155,-142,-128,-123,-116,-106,-94,-84,-79,-82,-87,-80,-76,-84,-88,-79,-79,-79,-78,-70,-63,-61,-62,-75,-76,-77,-85,-100,-102,-92,-84,-74,-77,-98,-108,-83,-69,-77,-89,-94,-80,-66,-66,-90,-100,-104,-87,-56,-54,-64,-64,-63,-61,-42,-26,-18,0,-11,-21,-26,-34,-41,-53,-59,-69,-65,-72,-67,-83,-93,-91,-101,-101,-80,-56,-49,-29,16,43,48,59,68,17,-121,-267,-347,-371,-352,-308,-232,-164,-126,-123,-118,-102,-95,-94,-91,-89,-99,-98,-91,-83,-95,-93,-86,-76,-68,-73,-87,-105,-115,-112,-92,-63,-73,-105,-108,-99,-108,-119,-125,-127,-125,-130,-123,-111,-110,-126,-155,-168,-166,-158,-148,-151,-154,-166,-184,-194,-191,-187,-179,-180,-180,-176,-171,-177,-179,-182,-180,-170,-168,-163,-156,-137,-123,-115,-107,-90,-72,-70,-56,-54,-72,-79,-73,-64,-69,-75,-71,-70,-70,-61,-60,-60,-68,-54,-50,-66,-74,-67,-57,-36,-48,-78,-96,-88,-78,-75,-70,-64,-67,-61,-53,-47,-40,-52,-73,-99,-87,-66,-70,-76,-74,-68,-64,-54,-58,-68,-72,-69,-63,-62,-59,-60,-54,-45,-41,-48,-57,-67,-77,-76,-68,-64,-61,-59,-62,-61,-57,-59,-62,-59,-57,-57,-53,-47,-32,-24,-28,-50,-73,-75,-62,-59,-59,-54,-48,-50,-41,-31,-34,-47,-66,-70,-66,-60,-51,-48,-44,-40,-40,-42,-44,-44,-48,-48,-50,-48,-46,-41,-39,-37,-39,-36,-39,-34,-30,-36,-43,-42,-46,-42,-39,-31,-28,-31,-33,-28,-21,-12,-3,14,8,-8,-1,1,6,10,12,11,10,0,-5,-9,-20,-23,-27,-30,-32,-38,-39,-35,-31,-23,-14,-6,1,13,49,96,140,163,164,123,0,-153,-269,-305,-296,-255,-201,-149,-96,-63,-46,-35,-31,-32,-31,-25,-28,-25,-29,-33,-33,-40,-40,-31,-27,-23,-26,-26,-26,-31,-30,-36,-39,-41,-34,-36,-40,-40,-50,-53,-55,-52,-58,-54,-53,-59,-58,-53,-47,-54,-56,-54,-52,-58,-61,-65,-66,-64,-60,-62,-64,-75,-76,-64,-64,-63,-64,-57,-54,-52,-52,-45,-44,-44,-36,-36,-27,-14,-12,-11,-12,-3,10,20,21,18,14,7,8,6,12,19,22,27,15,7,9,13,19,15,8,13,17,19,25,22,15,7,10,11,13,8,8,14,13,11,0,0,-5,-3,-1,7,11,0,4,8,11,10,6,1,2,2,5,2,5,2,0,0,1,0,3,3,1,0,4,-3,-4,-6,-5,-5,-7,-2,-10,-14,-16,-9,-5,-2,0,-2,0,-1,1,4,-1,-6,-18,-20,-16,-15,-12,7,7,0,-20,-30,-27,-16,-10,-9,-16,-9,0,12,18,22,23,25,27,28,27,22,22,31,29,28,12,5,1,-4,-9,-10,-9,-9,-16,-20,-16,-9,-3,6,17,21,46,96,168,215,239,238,158,6,-141,-222,-253,-246,-225,-187,-144,-98,-68,-51,-35,-22,-20,-31,-38,-29,-23,-20,-13,-9,-16,-21,-27,-29,-27,-28,-28,-25,-23,-24,-16,-16,-20,-26,-27,-21,-23,-34,-43,-41,-49,-46,-48,-56,-54,-57,-67,-74,-70,-76,-83,-92,-103,-105,-94,-97,-100,-100,-104,-114,-126,-125,-121,-126,-132,-128,-119,-111,-117,-120,-118,-111,-102,-98,-85,-76,-71,-59,-54,-64,-50,-42,-49,-54,-50,-43,-29,-27,-25,-36,-32,-29,-30,-30,-22,-18,-19,-24,-25,-28,-31,-40,-53,-55,-54,-58,-66,-70,-59,-51,-40,-42,-59,-69,-64,-62,-63,-63,-57,-58,-54,-51,-57,-60,-59,-58,-53,-60,-70,-64,-60,-64,-67,-70,-68,-53,-55,-61,-65,-68,-65,-57,-54,-61,-74,-72,-68,-64,-63,-69,-66,-69,-62,-58,-64,-72,-74,-70,-61,-63,-74,-86,-93,-85,-77,-72,-65,-63,-63,-67,-64,-70,-74,-77,-68,-57,-54,-36,-31,-56,-92,-84,-63,-66,-71,-67,-62,-52,-42,-40,-47,-52,-54,-52,-55,-56,-56,-64,-70,-60,-56,-50,-63,-93,-112,-112,-104,-85,-66,-59,-33,6,58,107,132,142,121,19,-127,-238,-306,-314,-295,-272,-249,-208,-160,-126,-113,-106,-91,-100,-109,-111,-112,-112,-105,-99,-101,-107,-104,-104,-92,-94,-86,-90,-94,-96,-95,-95,-92,-90,-103,-116,-131,-132,-126,-121,-114,-117,-114,-114,-118,-128,-137,-153,-170,-174,-177,-182,-176,-176,-174,-180,-192,-196,-194,-186,-194,-211,-214,-200,-200,-196,-204,-217,-214,-202,-192,-182,-173,-168,-168,-154,-140,-128,-123,-122,-124,-114,-104,-93,-89,-99,-104,-92,-88,-84,-86,-90,-80,-70,-55,-53,-65,-72,-75,-90,-86,-78,-61,-61,-71,-89,-105,-92,-76,-72,-65,-73,-75,-64,-58,-57,-61,-63,-64,-64,-59,-62,-66,-70,-74,-69,-57,-44,-34,-48,-59,-56,-63,-66,-69,-70,-82,-78,-61,-47,-52,-69,-78,-69,-62,-65,-72,-72,-74,-67,-58,-52,-49,-56,-63,-64,-57,-43,-44,-42,-42,-52,-58,-60,-77,-73,-62,-45,-42,-44,-58,-57,-52,-44,-54,-72,-71,-61,-55,-46,-41,-41,-41,-35,-32,-20,-7,-7,-25,-38,-50,-46,-40,-35,-21,-10,-21,-37,-51,-71,-77,-71,-70,-61,-57,-46,-54,-68,-64,-37,-12,1,38,94,139,164,148,67,-90,-220,-299,-322,-307,-272,-214,-156,-105,-91,-97,-91,-73,-66,-63,-61,-54,-64,-80,-88,-86,-78,-74,-66,-70,-72,-69,-70,-68,-72,-82,-79,-67,-54,-65,-87,-93,-92,-97,-103,-106,-113,-111,-110,-105,-105,-104,-114,-125,-128,-139,-152,-163,-175,-169,-164,-183,-177,-176,-185,-193,-195,-202,-210,-218,-212,-201,-198,-200,-192,-186,-193,-181,-168,-144,-132,-129,-131,-121,-102,-86,-83,-84,-83,-90,-78,-66,-60,-61,-53,-52,-56,-48,-45,-43,-40,-40,-38,-46,-57,-58,-53,-43,-35,-41,-27,-23,-40,-61,-63,-51,-50,-46,-38,-36,-43,-53,-56,-55,-52,-50,-42,-38,-50,-51,-47,-39,-44,-58,-75,-78,-69,-54,-46,-42,-46,-48,-53,-46,-50,-61,-58,-48,-35,-28,-38,-41,-56,-57,-60,-59,-57,-46,-35,-44,-62,-67,-51,-41,-34,-36,-57,-68,-71,-63,-63,-57,-41,-33,-31,-51,-56,-54,-51,-45,-49,-48,-45,-48,-46,-38,-28,-26,-27,-19,-12,-10,-3,-7,-22,-29,-22,-16,-16,-28,-48,-59,-62,-57,-50,-57,-68,-69,-59,-54,-53,-55,-49,-26,-11,22,72,122,137,139,119,25,-131,-262,-321,-318,-279,-220,-172,-144,-116,-93,-88,-77,-70,-67,-69,-75,-78,-73,-64,-65,-59,-57,-59,-52,-49,-54,-68,-70,-62,-60,-76,-80,-72,-70,-75,-86,-92,-90,-87,-85,-79,-71,-82,-94,-111,-118,-112,-109,-112,-118,-131,-148,-144,-149,-144,-147,-154,-171,-181,-191,-189,-181,-175,-187,-188,-187,-181,-184,-193,-191,-189,-180,-171,-153,-138,-120,-107,-91,-82,-82,-90,-93,-83,-65,-70,-74,-64,-56,-44,-46,-49,-61,-64,-59,-50,-46,-42,-38,-34,-45,-50,-52,-52,-57,-52,-42,-49,-53,-52,-48,-48,-41,-37,-44,-48,-46,-45,-44,-59,-63,-59,-50,-46,-53,-63,-61,-56,-52,-41,-31,-27,-48,-72,-77,-58,-58,-62,-61,-58,-51,-60,-66,-62,-57,-59,-57,-51,-45,-35,-43,-53,-57,-69,-58,-55,-48,-43,-55,-64,-68,-62,-59,-56,-48,-43,-45,-56,-70,-62,-56,-47,-43,-48,-66,-66,-52,-42,-29,-21,-18,-30,-34,-33,-30,-25,-27,-23,-16,-20,-29,-40,-42,-45,-45,-50,-57,-56,-55,-56,-53,-44,-48,-51,-39,-24,6,50,82,107,120,113,53,-69,-194,-268,-299,-285,-250,-196,-153,-117,-90,-80,-71,-70,-68,-67,-69,-69,-66,-63,-59,-59,-63,-65,-61,-63,-60,-61,-62,-61,-64,-67,-63,-62,-70,-65,-69,-72,-70,-64,-64,-72,-78,-83,-90,-86,-93,-114,-119,-121,-122,-126,-127,-130,-132,-138,-139,-144,-154,-155,-162,-170,-173,-171,-179,-176,-171,-167,-161,-168,-169,-159,-150,-145,-132,-118,-104,-92,-74,-64,-47,-48,-48,-40,-40,-38,-46,-35,-32,-30,-30,-34,-34,-38,-36,-42,-42,-41,-42,-47,-42,-42,-41,-40,-41,-39,-41,-42,-45,-38,-37,-38,-36,-39,-36,-44,-42,-50,-49,-44,-44,-34,-39,-34,-29,-20,-15,-1,25,63,99,117,130,121,48,-107,-252,-312,-304,-259,-195,-136,-94,-72,-51,-39,-40,-34,-25,-18,-24,-31,-32,-32,-36,-30,-21,-21,-27,-34,-35,-37,-46,-42,-43,-43,-46,-45,-40,-44,-43,-54,-55,-55,-56,-64,-73,-76,-75,-74,-77,-82,-91,-92,-98,-99,-108,-113,-113,-118,-127,-138,-140,-136,-138,-140,-130,-121,-109,-104,-91,-71,-52,-38,-34,-29,-28,-24,-16,-15,-11,-13,-11,-11,-10,-8,-8,-9,-9,-10,-19,-22,-29,-26,-23,-21,-26,-37,-39,-42,-39,-41,-43,-35,-34,-39,-46,-49,-48,-50,-51,-48,-49,-53,-58,-53,-50,-48,-56,-62,-62,-60,-58,-46,-33,-32,-28,-23,-15,-11,-7,0,-3,-1,23,63,110,157,187,191,141,10,-133,-222,-266,-258,-239,-206,-160,-116,-84,-61,-50,-44,-40,-46,-48,-49,-46,-47,-44,-47,-50,-44,-43,-51,-64,-68,-69,-62,-60,-61,-64,-61,-65,-72,-75,-77,-72,-69,-63,-54,-51,-49,-51,-52,-57,-58,-59,-67,-72,-74,-74,-73,-78,-79,-76,-90,-98,-101,-100,-104,-108,-111,-113,-108,-101,-94,-89,-83,-71,-68,-70,-75,-67,-62,-54,-51,-46,-47,-42,-38,-39,-33,-36,-43,-49,-50,-53,-49,-41,-33,-24,-19,-16,-17,-16,-18,-17,-13,-8,-8,-11,-9,-11,-5,3,13,26,37,47,55,75,91,107,84,-21,-148,-240,-279,-290,-287,-280,-272,-272,-268,-258,-261,-259,-241,-207,-163,-123,-101,-77,-59,-45,-34,-38,-48,-45,-46,-42,-28,-16,-14,-11,-13,-13,-9,-8,-14,-14,-19,-30,-35,-37,-29,-23,-26,-29,-28,-38,-39,-42,-51,-55,-54,-46,-41,-45,-49,-54,-54,-54,-61,-58,-56,-58,-52,-39,-34,-28,-22,-19,-26,-27,-16,-11,-2,-5,-10,-13,-6,-2,-2,-6,-14,-12,-12,-11,-19,-23,-24,-23,-21,-23,-35,-37,-34,-36,-36,-37,-31,-26,-26,-15,5,28,60,100,137,143,141,105,-6,-167,-279,-314,-296,-236,-175,-130,-100,-86,-75,-71,-72,-75,-71,-71,-74,-80,-90,-87,-91,-88,-85,-87,-84,-70,-61,-64,-64,-67,-68,-73,-70,-66,-64,-70,-89,-94,-102,-104,-105,-108,-116,-120,-117,-116,-121,-125,-131,-137,-142,-143,-144,-150,-156,-163,-168,-162,-165,-168,-172,-172,-167,-157,-152,-145,-132,-125,-114,-104,-96,-94,-95,-90,-85,-80,-80,-70,-55,-41,-38,-37,-34,-38,-41,-37,-38,-43,-40,-42,-34,-32,-33,-39,-45,-49,-46,-40,-40,-36,-33,-33,-27,-23,-10,-9,-8,0,-5,1,31,75,98,108,89,0,-158,-295,-350,-349,-305,-238,-172,-124,-100,-81,-74,-75,-70,-58,-48,-37,-27,-21,-28,-33,-25,-23,-25,-27,-30,-32,-27,-27,-29,-38,-44,-46,-52,-55,-57,-63,-69,-69,-73,-72,-70,-76,-73,-78,-85,-83,-83,-88,-89,-93,-100,-105,-112,-111,-121,-124,-132,-139,-136,-135,-136,-132,-123,-114,-108,-101,-91,-79,-65,-51,-27,-22,-9,-1,2,-2,-1,-1,-6,-7,-8,-6,-4,-7,-3,-12,-12,-15,-15,-12,-24,-24,-28,-25,-19,-19,-16,-18,-15,-19,-18,-16,-22,-26,-32,-31,-33,-27,-36,-47,-56,-57,-60,-60,-60,-64,-69,-69,-67,-61,-63,-70,-70,-57,-46,-35,-37,-38,-37,-26,-21,-17,-5,4,20,61,101,135,152,142,97,-38,-202,-303,-332,-317,-264,-195,-136,-94,-62,-44,-34,-30,-27,-26,-32,-37,-46,-53,-56,-55,-50,-48,-51,-55,-57,-59,-64,-72,-74,-78,-76,-82,-90,-89,-76,-71,-66,-66,-72,-77,-75,-78,-82,-88,-83,-82,-86,-90,-97,-99,-109,-109,-110,-112,-114,-115,-118,-123,-125,-118,-112,-110,-113,-106,-101,-95,-92,-91,-87,-82,-75,-72,-67,-64,-64,-65,-55,-47,-49,-55,-60,-59,-64,-68,-65,-54,-46,-40,-32,-32,-32,-27,-33,-43,-42,-44,-48,-44,-44,-45,-48,-48,-52,-50,-46,-42,-30,-14,18,45,56,55,58,54,39,13,-41,-148,-226,-227,-209,-165,-127,-102,-83,-77,-77,-74,-80,-86,-86,-83,-82,-78,-75,-75,-72,-64,-63,-68,-70,-73,-71,-74,-71,-69,-73,-73,-76,-80,-83,-87,-93,-96,-101,-101,-102,-111,-115,-126,-136,-151,-155,-159,-159,-161,-162,-170,-173,-183,-184,-189,-194,-197,-196,-196,-192,-192,-190,-175,-165,-157,-153,-151,-143,-139,-117,-99,-84,-74,-62,-61,-56,-52,-49,-36,-14,9,39,71,115,151,169,119,-49,-221,-298,-301,-276,-230,-167,-119,-91,-68,-67,-69,-69,-65,-63,-65,-66,-67,-66,-70,-68,-64,-65,-66,-71,-72,-74,-70,-61,-61,-70,-71,-74,-75,-73,-70,-64,-61,-68,-74,-73,-75,-77,-75,-79,-88,-87,-90,-98,-96,-102,-108,-109,-107,-107,-104,-104,-107,-104,-104,-97,-93,-83,-76,-70,-62,-60,-49,-49,-50,-56,-56,-56,-58,-54,-62,-64,-64,-62,-64,-57,-57,-58,-66,-65,-68,-72,-69,-59,-60,-60,-61,-56,-58,-59,-55,-61,-64,-61,-60,-66,-63,-64,-65,-72,-75,-79,-81,-82,-75,-70,-71,-72,-78,-81,-78,-82,-80,-79,-80,-83,-82,-78,-77,-77,-83,-83,-81,-80,-70,-57,-40,-7,28,72,100,115,103,21,-142,-293,-370,-388,-345,-273,-192,-140,-100,-93,-83,-78,-79,-70,-71,-72,-71,-75,-79,-78,-71,-76,-83,-86,-82,-78,-77,-86,-84,-82,-82,-84,-86,-94,-100,-99,-102,-101,-102,-102,-106,-99,-105,-112,-114,-113,-115,-114,-112,-109,-101,-94,-99,-101,-109,-109,-113,-105,-92,-80,-72,-74,-69,-63,-51,-54,-59,-63,-60,-53,-43,-36,-33,-32,-24,-30,-38,-43,-43,-39,-44,-52,-59,-56,-58,-59,-58,-66,-70,-69,-72,-82,-80,-74,-75,-80,-83,-87,-82,-66,-54,-47,-25,16,55,87,100,30,-133,-291,-374,-375,-339,-281,-212,-159,-112,-82,-71,-60,-69,-70,-70,-73,-73,-74,-76,-82,-84,-78,-79,-82,-79,-88,-89,-96,-94,-93,-91,-92,-94,-97,-98,-97,-100,-98,-108,-121,-132,-135,-132,-128,-133,-137,-150,-159,-162,-158,-160,-157,-163,-173,-164,-152,-143,-140,-138,-132,-126,-111,-100,-87,-77,-64,-56,-46,-44,-45,-45,-42,-47,-53,-54,-55,-49,-49,-56,-56,-58,-63,-62,-57,-55,-36,-8,38,81,123,151,165,154,60,-139,-302,-367,-374,-334,-271,-197,-148,-125,-112,-109,-109,-105,-85,-72,-66,-66,-73,-78,-70,-66,-78,-84,-85,-84,-80,-72,-75,-78,-76,-74,-78,-79,-79,-79,-96,-100,-96,-95,-95,-96,-107,-115,-116,-122,-126,-127,-132,-140,-132,-131,-128,-131,-136,-131,-141,-144,-145,-140,-140,-136,-114,-109,-102,-95,-89,-72,-67,-62,-54,-56,-60,-64,-65,-59,-56,-61,-62,-64,-67,-69,-65,-69,-65,-60,-59,-62,-63,-65,-68,-63,-61,-64,-68,-64,-64,-72,-71,-70,-63,-60,-55,-60,-54,-34,12,56,86,88,34,-112,-270,-369,-393,-377,-341,-261,-194,-148,-121,-97,-86,-70,-68,-78,-86,-76,-74,-72,-79,-80,-79,-73,-76,-72,-73,-75,-81,-76,-75,-69,-63,-66,-73,-77,-82,-84,-86,-92,-93,-100,-108,-112,-108,-104,-104,-110,-117,-121,-114,-116,-121,-131,-133,-133,-129,-120,-120,-128,-134,-132,-133,-133,-125,-106,-92,-88,-77,-64,-56,-55,-41,-37,-47,-53,-44,-38,-36,-35,-40,-38,-41,-45,-40,-41,-42,-37,-38,-23,-19,-20,-3,15,36,74,115,142,147,152,116,-26,-216,-332,-354,-331,-274,-209,-149,-110,-92,-77,-61,-57,-52,-44,-41,-51,-68,-70,-68,-64,-58,-54,-44,-38,-37,-41,-46,-54,-56,-56,-60,-65,-61,-52,-52,-62,-70,-76,-76,-82,-88,-90,-92,-91,-95,-95,-101,-102,-105,-106,-111,-111,-106,-101,-93,-91,-90,-92,-87,-83,-79,-73,-68,-66,-61,-49,-40,-30,-26,-23,-27,-27,-26,-17,-11,-7,-12,-19,-17,-16,-13,-13,-15,-18,-18,-12,-5,-10,-20,-15,-7,-5,-4,-10,-15,-20,-19,-23,-24,-30,-29,-28,-34,-35,-36,-39,-41,-38,-44,-51,-50,-50,-48,-50,-48,-50,-49,-52,-50,-56,-56,-50,-39,-34,-38,-39,-33,-30,-19,-11,1,8,29,71,120,155,171,163,84,-77,-234,-309,-316,-288,-231,-162,-113,-79,-55,-43,-37,-40,-37,-34,-27,-26,-31,-31,-34,-28,-32,-38,-37,-38,-41,-44,-41,-46,-48,-56,-62,-67,-75,-81,-85,-87,-89,-87,-76,-73,-69,-70,-63,-62,-62,-59,-48,-45,-33,-35,-31,-30,-22,-17,-16,-22,-17,-18,-9,-9,-1,3,2,5,15,15,21,26,26,30,28,34,37,38,42,37,27,17,11,7,6,0,3,5,0,0,2,-4,-15,-23,-21,-22,-26,-32,-29,-31,-34,-42,-54,-66,-75,-77,-85,-85,-80,-70,-53,-31,-6,11,30,59,85,114,135,136,84,-62,-234,-319,-315,-256,-178,-113,-83,-64,-45,-32,-25,-24,-30,-33,-31,-31,-27,-36,-35,-32,-27,-26,-28,-30,-36,-40,-45,-42,-48,-51,-54,-54,-56,-62,-68,-70,-76,-86,-93,-111,-121,-124,-124,-129,-132,-130,-136,-143,-143,-146,-150,-162,-158,-154,-145,-146,-142,-138,-137,-132,-123,-115,-114,-109,-94,-82,-67,-54,-39,-23,-16,7,37,89,142,174,121,-54,-230,-305,-299,-260,-222,-154,-97,-63,-45,-30,-16,-12,-4,-8,-9,-12,-12,-9,-5,-7,-9,-7,-7,-10,-10,-4,-8,-8,-8,-6,-11,-14,-14,-6,-9,-8,-12,-11,-19,-21,-25,-23,-24,-25,-27,-27,-25,-30,-34,-32,-32,-38,-32,-29,-26,-26,-21,-16,-8,-5,-8,-14,-12,-8,-7,-3,-2,-5,-16,-16,-18,-23,-25,-33,-36,-34,-34,-32,-27,-28,-26,-35,-43,-47,-42,-40,-43,-49,-49,-44,-44,-41,-38,-45,-45,-47,-45,-41,-41,-44,-42,-44,-47,-41,-43,-37,-48,-51,-52,-51,-54,-48,-44,-42,-46,-53,-53,-58,-54,-57,-50,-48,-43,-44,-46,-47,-57,-52,-52,-50,-49,-52,-57,-63,-56,-52,-51,-53,-53,-50,-50,-55,-60,-59,-54,-49,-47,-46,-52,-56,-52,-54,-57,-61,-53,-55,-52,-52,-46,-46,-53,-63,-66,-61,-59,-59,-59,-60,-57,-58,-58,-54,-56,-53,-57,-58,-57,-53,-56,-54,-57,-60,-64,-60,-57,-59,-58,-62,-61,-57,-51,-49,-56,-62,-55,-57,-51,-50,-40,-32,-40,-38,-38,-36,-36,-46,-48,-47,-48,-52,-60,-58,-56,-62,-64,-67,-68,-72,-74,-74,-76,-73,-65,-57,-43,-29,2,47,89,111,118,111,35,-120,-264,-331,-340,-314,-269,-216,-167,-132,-109,-98,-86,-86,-85,-81,-76,-79,-78,-81,-84,-85,-83,-84,-84,-82,-77,-85,-90,-94,-92,-88,-89,-89,-96,-102,-102,-95,-93,-97,-94,-95,-100,-96,-96,-97,-98,-94,-90,-90,-93,-97,-95,-92,-93,-94,-89,-94,-92,-89,-84,-76,-72,-74,-66,-68,-68,-72,-73,-73,-70,-57,-52,-42,-42,-38,-32,-30,-28,-22,-20,-20,-13,-17,-25,-22,-26,-30,-32,-40,-44,-48,-50,-48,-52,-55,-62,-61,-60,-62,-69,-70,-71,-75,-77,-73,-70,-69,-66,-60,-64,-74,-83,-84,-78,-76,-74,-76,-80,-85,-85,-85,-85,-87,-86,-84,-83,-84,-84,-79,-77,-83,-87,-90,-94,-90,-94,-91,-96,-92,-86,-85,-86,-85,-86,-82,-84,-96,-97,-93,-90,-88,-92,-98,-101,-95,-96,-95,-92,-90,-88,-90,-89,-92,-87,-85,-97,-107,-102,-97,-91,-93,-100,-95,-96,-92,-92,-94,-91,-89,-91,-101,-100,-98,-97,-94,-93,-95,-96,-100,-104,-107,-105,-98,-96,-99,-92,-90,-90,-90,-97,-107,-107,-105,-98,-87,-76,-73,-78,-70,-63,-62,-68,-68,-72,-72,-75,-77,-79,-81,-90,-100,-103,-111,-112,-111,-111,-111,-110,-111,-108,-100,-83,-63,-26,21,74,105,126,110,14,-138,-272,-348,-357,-342,-310,-265,-215,-180,-157,-147,-134,-122,-118,-115,-122,-133,-141,-139,-136,-135,-127,-125,-132,-133,-125,-126,-128,-130,-134,-138,-134,-143,-145,-150,-151,-153,-150,-157,-158,-162,-164,-170,-173,-174,-168,-170,-175,-186,-186,-187,-184,-191,-197,-201,-197,-193,-197,-205,-205,-200,-205,-201,-208,-213,-215,-203,-190,-185,-180,-168,-162,-161,-155,-150,-146,-140,-128,-123,-112,-110,-111,-104,-105,-102,-104,-112,-122,-126,-121,-116,-125,-126,-125,-124,-122,-127,-123,-121,-115,-119,-114,-110,-109,-121,-128,-129,-124,-120,-119,-117,-120,-123,-122,-123,-117,-115,-115,-118,-124,-126,-111,-106,-100,-104,-94,-58,0,57,105,92,-34,-215,-333,-376,-376,-365,-333,-300,-256,-195,-145,-117,-102,-85,-75,-70,-69,-75,-73,-75,-89,-96,-100,-103,-102,-96,-94,-92,-94,-98,-105,-108,-111,-111,-114,-126,-130,-133,-127,-125,-128,-136,-147,-149,-156,-154,-158,-160,-161,-163,-163,-169,-174,-179,-182,-184,-185,-186,-182,-174,-172,-175,-176,-166,-156,-153,-146,-143,-138,-123,-117,-106,-105,-102,-100,-100,-93,-93,-97,-99,-101,-100,-98,-92,-92,-99,-107,-111,-108,-111,-112,-113,-105,-104,-104,-105,-111,-108,-107,-108,-112,-110,-108,-110,-109,-113,-111,-108,-110,-116,-114,-112,-113,-114,-114,-113,-107,-103,-101,-110,-111,-114,-115,-116,-113,-112,-108,-105,-105,-107,-111,-109,-104,-109,-114,-114,-117,-112,-109,-104,-106,-111,-111,-110,-114,-118,-121,-113,-113,-104,-110,-107,-107,-112,-118,-115,-117,-110,-110,-114,-110,-109,-110,-107,-108,-106,-110,-109,-112,-106,-104,-109,-110,-110,-108,-105,-106,-115,-121,-119,-113,-112,-114,-112,-109,-102,-102,-106,-117,-116,-112,-116,-115,-107,-102,-104,-111,-108,-109,-112,-110,-106,-103,-109,-115,-110,-103,-97,-100,-111,-114,-113,-109,-105,-102,-106,-103,-102,-98,-100,-107,-106,-112,-111,-113,-112,-117,-108,-105,-99,-101,-99,-111,-111,-110,-105,-105,-103,-101,-99,-98,-91,-88,-96,-109,-112,-106,-101,-100,-97,-98,-97,-104,-102,-98,-96,-100,-100,-106,-103,-98,-100,-89,-78,-78,-78,-77,-71,-64,-61,-62,-63,-61,-61,-55,-53,-60,-67,-68,-70,-84,-92,-102,-104,-104,-104,-105,-109,-105,-105,-100,-83,-68,-41,6,61,89,100,98,26,-134,-286,-364,-388,-362,-308,-238,-183,-148,-132,-120,-119,-120,-122,-121,-121,-114,-109,-108,-110,-114,-116,-121,-117,-114,-114,-113,-118,-116,-115,-114,-118,-124,-123,-123,-127,-127,-128,-136,-139,-130,-134,-132,-141,-143,-148,-149,-149,-150,-157,-164,-168,-167,-172,-170,-171,-179,-180,-182,-183,-182,-187,-180,-180,-179,-182,-185,-192,-191,-193,-186,-184,-180,-164,-150,-141,-133,-120,-111,-96,-79,-70,-60,-53,-57,-64,-70,-74,-77,-84,-86,-86,-96,-98,-90,-87,-94,-102,-105,-107,-104,-106,-102,-102,-109,-110,-107,-109,-107,-107,-109,-107,-112,-111,-106,-107,-108,-111,-104,-104,-108,-109,-116,-119,-116,-111,-118,-121,-111,-79,-46,-16,6,-38,-172,-303,-377,-396,-399,-393,-377,-370,-362,-346,-328,-291,-241,-188,-136,-98,-82,-80,-81,-84,-82,-83,-77,-75,-75,-75,-78,-74,-70,-69,-69,-68,-71,-76,-77,-75,-71,-75,-76,-74,-71,-80,-85,-86,-86,-94,-93,-101,-100,-107,-108,-107,-107,-113,-115,-110,-106,-114,-118,-106,-96,-92,-87,-81,-73,-62,-52,-49,-52,-41,-32,-24,-23,-22,-15,-15,-15,-18,-25,-30,-25,-31,-41,-46,-49,-54,-57,-56,-59,-66,-62,-64,-64,-67,-66,-67,-68,-69,-69,-67,-69,-73,-73,-69,-68,-66,-61,-60,-53,-44,-32,-24,-20,-15,-7,-8,-3,-11,-18,-25,-34,-50,-66,-74,-79,-82,-85,-85,-85,-81,-80,-78,-69,-58,-48,-22,24,75,106,117,100,10,-152,-287,-353,-362,-336,-269,-196,-150,-113,-92,-84,-81,-77,-81,-77,-69,-70,-80,-80,-75,-65,-64,-63,-67,-77,-79,-80,-75,-82,-82,-82,-83,-78,-80,-79,-82,-86,-90,-92,-95,-97,-100,-104,-104,-107,-110,-115,-120,-129,-134,-142,-149,-151,-148,-148,-150,-152,-161,-172,-171,-173,-171,-166,-163,-155,-146,-138,-128,-116,-108,-104,-99,-89,-73,-64,-54,-45,-38,-41,-45,-39,-38,-33,-33,-27,-24,-21,-23,-26,-19,-14,-17,-11,-22,-26,-27,-29,-24,-17,-17,-25,-20,-20,-19,-21,-24,-20,-21,-25,-23,-20,-19,-17,-21,-21,-25,-24,-24,-22,-23,-20,-12,-13,-15,-21,-19,-22,-20,-20,-25,-26,-24,-14,-7,-13,-15,-16,-12,-22,-27,-30,-25,-23,-14,-12,-10,-7,-9,-12,-17,-11,-11,-16,-21,-20,-17,-16,-15,-14,-11,-14,-15,-7,-3,-2,-6,-3,0,-3,-8,-12,-16,-24,-24,-22,-19,-16,-6,0,2,4,-2,-8,-10,-4,-3,-8,-16,-8,-5,-2,-7,-4,-2,-8,-11,-8,-6,-5,7,14,16,18,25,23,18,17,28,33,36,42,47,38,22,18,14,5,-4,-9,-14,-18,-23,-16,-15,-8,-3,3,10,17,40,84,150,205,233,249,206,76,-88,-201,-261,-260,-237,-205,-147,-94,-64,-44,-34,-28,-22,-22,-20,-17,-14,-15,-27,-29,-20,-12,-10,-13,-21,-23,-18,-20,-18,-18,-19,-19,-14,-13,-17,-24,-27,-38,-42,-43,-49,-46,-42,-48,-46,-45,-56,-70,-71,-69,-70,-79,-77,-72,-72,-73,-79,-87,-86,-87,-96,-98,-96,-98,-94,-99,-97,-93,-91,-89,-87,-80,-59,-46,-35,-29,-21,-1,16,30,36,40,36,31,19,14,8,12,10,14,12,15,9,0,-16,-19,-14,-8,-19,-14,-8,-2,-7,-5,-10,-9,-12,-19,-16,-10,-10,-17,-20,-19,-16,-14,-26,-28,-28,-28,-27,-22,-11,-6,-10,-14,-15,-18,-17,-8,19,67,112,159,191,130,-44,-206,-282,-292,-291,-278,-251,-232,-194,-142,-99,-64,-50,-36,-27,-24,-25,-22,-25,-19,-15,-19,-19,-25,-28,-28,-16,-18,-25,-23,-20,-20,-20,-20,-21,-27,-35,-36,-38,-34,-43,-44,-43,-40,-43,-44,-51,-57,-64,-68,-68,-72,-72,-82,-72,-73,-69,-75,-77,-80,-77,-69,-67,-61,-49,-36,-22,-12,-10,-10,-5,-2,1,7,6,5,3,7,4,6,5,1,-10,-15,-14,-13,-14,-12,-10,-8,-14,-18,-21,-21,-25,-23,-25,-20,-18,-15,-14,-15,-18,-27,-27,-24,-30,-37,-38,-36,-28,-26,-39,-34,-34,-38,-39,-37,-36,-23,-9,-1,15,30,37,29,25,21,17,1,-3,-9,-14,-22,-35,-45,-45,-50,-64,-63,-59,-55,-49,-35,-20,-5,24,76,123,142,148,119,2,-157,-267,-312,-306,-282,-247,-198,-154,-118,-100,-83,-70,-70,-77,-75,-68,-74,-74,-68,-69,-71,-72,-79,-75,-71,-77,-79,-76,-81,-90,-87,-88,-88,-87,-87,-88,-96,-104,-106,-103,-105,-114,-127,-134,-138,-136,-141,-147,-152,-156,-157,-163,-171,-181,-192,-193,-193,-191,-188,-190,-197,-204,-197,-194,-194,-193,-185,-173,-157,-143,-138,-128,-117,-109,-104,-98,-91,-92,-83,-75,-72,-63,-62,-64,-68,-74,-75,-75,-75,-72,-65,-62,-59,-57,-56,-64,-72,-75,-68,-69,-71,-73,-73,-66,-68,-72,-72,-74,-78,-74,-78,-78,-76,-76,-81,-80,-78,-76,-76,-83,-79,-86,-89,-83,-82,-86,-88,-87,-82,-85,-84,-88,-89,-92,-90,-87,-84,-85,-86,-85,-84,-82,-89,-93,-87,-89,-89,-87,-83,-80,-76,-82,-88,-94,-94,-92,-91,-92,-93,-92,-88,-86,-88,-89,-86,-84,-83,-91,-94,-89,-88,-88,-93,-88,-91,-96,-99,-95,-92,-88,-91,-87,-87,-87,-90,-88,-92,-96,-105,-96,-94,-97,-99,-93,-90,-94,-94,-100,-99,-101,-99,-97,-96,-98,-88,-81,-74,-68,-67,-71,-75,-73,-66,-68,-64,-64,-62,-58,-67,-83,-89,-92,-99,-101,-103,-109,-108,-118,-116,-114,-109,-109,-109,-101,-84,-54,1,49,71,81,68,-27,-205,-350,-416,-416,-374,-309,-240,-187,-163,-147,-144,-138,-142,-142,-133,-132,-134,-130,-131,-133,-130,-127,-133,-138,-144,-147,-145,-143,-144,-141,-142,-145,-147,-148,-145,-149,-147,-154,-161,-156,-162,-163,-168,-177,-178,-177,-184,-191,-202,-200,-206,-208,-209,-207,-216,-223,-226,-231,-237,-236,-250,-253,-248,-249,-254,-254,-251,-252,-256,-257,-256,-244,-227,-206,-187,-174,-162,-147,-135,-122,-107,-84,-77,-78,-78,-81,-87,-91,-91,-93,-96,-101,-116,-125,-119,-115,-109,-116,-122,-126,-120,-120,-125,-126,-131,-134,-134,-129,-124,-124,-129,-129,-133,-136,-128,-134,-133,-131,-134,-133,-127,-130,-133,-134,-133,-128,-117,-124,-128,-118,-83,-34,11,42,3,-147,-315,-410,-445,-450,-438,-407,-375,-311,-238,-187,-162,-145,-133,-124,-128,-125,-122,-120,-112,-114,-116,-116,-116,-114,-113,-116,-117,-117,-113,-107,-106,-107,-110,-119,-120,-117,-117,-123,-121,-123,-121,-123,-130,-133,-143,-145,-156,-154,-156,-156,-154,-156,-165,-168,-178,-181,-184,-184,-182,-176,-173,-167,-161,-152,-143,-134,-126,-121,-114,-107,-103,-95,-85,-80,-85,-85,-85,-89,-90,-91,-94,-101,-96,-95,-96,-93,-100,-94,-100,-101,-102,-109,-110,-114,-108,-106,-102,-104,-102,-101,-111,-107,-113,-116,-116,-111,-108,-106,-106,-109,-109,-114,-119,-116,-119,-122,-118,-110,-109,-108,-101,-96,-92,-77,-67,-59,-51,-49,-41,-37,-44,-52,-66,-84,-89,-104,-117,-125,-126,-130,-132,-127,-126,-128,-123,-117,-101,-85,-61,-14,35,47,53,25,-88,-264,-396,-453,-446,-399,-329,-258,-200,-170,-150,-136,-137,-141,-131,-136,-136,-141,-140,-138,-139,-138,-134,-134,-135,-143,-141,-143,-141,-138,-135,-139,-140,-138,-136,-143,-150,-154,-154,-156,-166,-164,-159,-160,-170,-177,-181,-189,-196,-202,-205,-210,-213,-215,-217,-226,-227,-229,-236,-242,-245,-244,-245,-244,-237,-232,-223,-218,-212,-206,-200,-190,-175,-165,-152,-137,-128,-119,-117,-112,-111,-109,-110,-114,-107,-106,-97,-96,-95,-96,-96,-96,-101,-103,-104,-100,-99,-103,-102,-97,-100,-99,-102,-104,-108,-111,-107,-104,-104,-102,-102,-98,-97,-103,-105,-110,-105,-101,-103,-105,-105,-106,-103,-101,-100,-102,-104,-108,-108,-107,-106,-101,-98,-102,-99,-98,-103,-105,-109,-106,-104,-97,-99,-98,-100,-103,-106,-103,-104,-103,-105,-106,-104,-98,-97,-96,-98,-97,-100,-101,-98,-100,-103,-103,-103,-98,-92,-96,-96,-102,-102,-101,-101,-100,-103,-103,-98,-91,-94,-92,-95,-102,-96,-96,-96,-97,-97,-96,-97,-94,-99,-92,-94,-93,-93,-93,-95,-95,-89,-91,-85,-73,-66,-64,-62,-62,-65,-57,-50,-48,-44,-43,-41,-47,-53,-62,-67,-78,-81,-87,-90,-91,-89,-93,-93,-94,-96,-98,-90,-72,-64,-39,-2,45,89,104,111,78,-44,-209,-333,-391,-389,-351,-276,-208,-160,-132,-115,-109,-115,-113,-109,-109,-104,-105,-102,-106,-104,-103,-102,-105,-108,-110,-113,-110,-108,-108,-105,-108,-109,-107,-116,-123,-122,-118,-117,-118,-117,-119,-119,-122,-131,-137,-143,-143,-147,-150,-152,-157,-158,-158,-162,-160,-175,-185,-186,-187,-192,-195,-194,-198,-196,-201,-195,-196,-200,-193,-186,-173,-161,-146,-133,-120,-101,-85,-67,-56,-46,-46,-48,-45,-46,-44,-46,-43,-47,-46,-52,-60,-62,-62,-64,-60,-64,-57,-53,-58,-61,-67,-70,-68,-64,-67,-72,-69,-68,-69,-66,-68,-66,-66,-60,-67,-62,-71,-73,-64,-62,-64,-60,-61,-61,-68,-69,-64,-65,-62,-67,-54,-19,36,82,113,92,-40,-218,-325,-364,-364,-348,-320,-278,-207,-140,-96,-76,-64,-51,-48,-42,-37,-29,-32,-34,-41,-38,-38,-37,-42,-39,-37,-38,-33,-35,-32,-30,-32,-38,-43,-45,-48,-45,-48,-40,-41,-44,-56,-58,-62,-67,-66,-76,-86,-90,-88,-84,-85,-86,-89,-89,-95,-95,-96,-92,-95,-86,-78,-72,-56,-48,-42,-40,-32,-28,-22,-13,-7,0,4,7,4,0,0,-6,-4,-6,-8,-8,-16,-16,-15,-22,-22,-21,-19,-16,-18,-23,-25,-22,-18,-20,-27,-27,-24,-30,-32,-33,-34,-34,-36,-32,-22,-27,-29,-38,-42,-40,-37,-37,-36,-38,-36,-32,-28,-30,-24,-16,-6,2,18,19,23,25,21,20,18,1,-13,-20,-27,-38,-50,-48,-53,-60,-55,-49,-45,-37,-31,-22,9,54,106,144,172,171,89,-80,-224,-301,-316,-305,-274,-218,-163,-128,-99,-78,-67,-57,-58,-66,-72,-70,-69,-69,-63,-59,-58,-58,-61,-62,-60,-64,-64,-65,-72,-68,-61,-65,-71,-71,-79,-84,-86,-90,-89,-88,-85,-91,-97,-100,-107,-118,-125,-127,-128,-134,-144,-150,-151,-148,-152,-153,-162,-167,-169,-168,-171,-168,-164,-162,-157,-149,-142,-131,-128,-121,-111,-101,-86,-79,-68,-56,-51,-49,-47,-50,-46,-40,-38,-40,-33,-34,-33,-31,-29,-30,-36,-34,-34,-34,-32,-31,-27,-24,-29,-30,-26,-25,-31,-32,-43,-43,-33,-31,-36,-37,-31,-29,-32,-41,-41,-45,-39,-39,-39,-39,-35,-34,-40,-37,-41,-43,-44,-40,-39,-29,-38,-38,-32,-31,-33,-44,-38,-40,-36,-42,-47,-39,-36,-38,-39,-42,-47,-51,-44,-42,-42,-40,-36,-34,-35,-34,-43,-40,-38,-35,-34,-40,-36,-37,-28,-27,-32,-37,-40,-37,-34,-37,-38,-42,-36,-35,-29,-23,-25,-27,-31,-38,-36,-33,-34,-30,-31,-26,-26,-33,-30,-32,-28,-23,-19,-22,-18,-6,0,0,-1,0,0,1,7,7,9,10,19,11,4,-2,-13,-25,-28,-33,-27,-32,-28,-27,-26,-24,-24,-24,-8,3,30,82,143,183,202,198,123,-30,-174,-265,-284,-269,-243,-199,-147,-103,-75,-52,-41,-37,-39,-40,-40,-37,-36,-37,-34,-29,-28,-32,-32,-32,-30,-35,-37,-40,-41,-42,-40,-33,-36,-39,-42,-51,-54,-55,-57,-56,-59,-61,-66,-67,-74,-75,-75,-77,-88,-93,-99,-103,-104,-100,-110,-113,-114,-118,-129,-135,-135,-135,-136,-142,-143,-136,-136,-136,-132,-134,-133,-140,-128,-118,-113,-109,-92,-78,-61,-52,-46,-50,-45,-29,-33,-22,-4,8,19,30,28,19,11,8,10,16,17,22,17,14,15,15,17,16,11,13,12,11,11,11,14,15,15,12,11,7,9,7,8,5,9,14,9,18,14,13,18,19,19,22,46,94,160,201,212,152,-8,-172,-268,-305,-295,-268,-225,-161,-96,-42,-16,-1,8,8,9,9,13,11,13,14,12,11,10,11,9,8,8,8,9,7,6,8,8,3,9,4,-3,-7,-7,-12,-15,-15,-17,-20,-27,-33,-35,-43,-45,-53,-54,-59,-59,-65,-68,-66,-67,-71,-76,-79,-78,-76,-75,-68,-60,-44,-35,-26,-16,-14,-4,2,9,14,13,18,23,27,26,27,25,23,24,21,12,7,11,8,13,11,11,9,12,4,1,1,3,1,4,7,10,10,7,4,0,-6,-8,-8,-6,-7,-7,-2,-1,-9,-6,-6,-6,-9,0,6,16,34,48,59,63,61,59,54,42,31,24,13,6,1,-7,-10,-21,-22,-27,-31,-27,-25,-18,-5,11,27,60,101,134,148,152,121,-13,-186,-297,-330,-319,-270,-197,-138,-99,-75,-59,-47,-43,-39,-42,-41,-39,-38,-38,-40,-40,-43,-43,-39,-44,-46,-43,-44,-47,-48,-47,-47,-52,-64,-63,-64,-64,-62,-60,-64,-67,-72,-79,-88,-93,-97,-103,-105,-106,-109,-115,-119,-124,-135,-142,-146,-147,-154,-150,-152,-157,-159,-152,-153,-146,-144,-146,-138,-126,-120,-107,-92,-79,-72,-59,-49,-45,-45,-41,-35,-33,-25,-21,-15,-18,-14,-12,-15,-21,-24,-20,-22,-19,-19,-16,-14,-17,-16,-22,-21,-23,-23,-27,-32,-28,-20,-22,-28,-28,-31,-31,-32,-32,-31,-33,-35,-32,-27,-26,-33,-36,-41,-43,-39,-39,-38,-40,-43,-41,-44,-44,-38,-40,-49,-51,-48,-47,-49,-46,-41,-41,-42,-42,-45,-46,-49,-48,-50,-51,-51,-47,-47,-48,-45,-48,-49,-53,-57,-55,-56,-50,-52,-49,-49,-53,-52,-55,-61,-62,-61,-57,-59,-59,-50,-51,-50,-50,-54,-57,-61,-57,-59,-56,-54,-55,-57,-58,-59,-60,-61,-60,-61,-66,-66,-63,-57,-57,-53,-44,-40,-34,-42,-43,-39,-33,-29,-23,-25,-26,-22,-30,-38,-44,-52,-61,-63,-70,-77,-75,-75,-74,-76,-73,-80,-78,-64,-52,-31,7,63,102,117,128,95,-24,-198,-320,-372,-369,-332,-263,-199,-152,-122,-105,-97,-96,-99,-102,-94,-94,-95,-92,-95,-97,-93,-89,-96,-101,-100,-98,-100,-100,-98,-99,-100,-105,-99,-106,-111,-115,-113,-120,-121,-124,-122,-128,-121,-125,-129,-140,-150,-155,-154,-152,-154,-158,-167,-174,-174,-179,-183,-189,-196,-191,-202,-199,-200,-200,-202,-201,-205,-203,-200,-190,-179,-166,-153,-143,-123,-102,-90,-80,-70,-58,-57,-63,-64,-73,-74,-67,-66,-69,-70,-80,-89,-88,-85,-86,-89,-89,-88,-86,-84,-88,-89,-89,-94,-96,-95,-94,-94,-93,-97,-98,-98,-93,-89,-97,-100,-104,-99,-99,-100,-97,-92,-91,-93,-91,-90,-92,-97,-93,-95,-88,-71,-26,28,92,123,53,-132,-288,-354,-372,-372,-351,-325,-292,-235,-176,-144,-127,-116,-105,-98,-99,-92,-88,-86,-85,-87,-91,-98,-93,-96,-95,-96,-103,-95,-90,-89,-92,-92,-94,-98,-99,-101,-98,-100,-104,-103,-104,-113,-117,-123,-128,-127,-133,-134,-140,-143,-142,-139,-143,-144,-153,-150,-159,-157,-151,-146,-146,-136,-127,-118,-116,-106,-103,-93,-83,-79,-71,-72,-67,-60,-58,-59,-56,-53,-56,-67,-75,-85,-80,-84,-79,-79,-87,-90,-91,-91,-97,-89,-84,-90,-102,-102,-98,-92,-89,-92,-94,-102,-106,-104,-109,-107,-106,-103,-99,-99,-97,-99,-113,-117,-116,-114,-112,-109,-108,-107,-105,-102,-93,-84,-76,-63,-55,-52,-49,-45,-45,-44,-48,-60,-77,-82,-95,-107,-112,-114,-125,-125,-119,-119,-121,-118,-110,-92,-78,-51,-3,58,96,118,100,-13,-179,-309,-370,-387,-374,-344,-295,-234,-190,-162,-149,-139,-137,-139,-136,-137,-137,-145,-146,-135,-133,-134,-136,-139,-145,-146,-146,-143,-142,-142,-142,-146,-143,-142,-143,-143,-146,-155,-162,-165,-168,-174,-176,-167,-176,-186,-194,-202,-205,-208,-211,-219,-224,-219,-224,-226,-234,-243,-246,-251,-248,-245,-243,-242,-238,-230,-227,-222,-215,-207,-201,-191,-179,-171,-167,-152,-142,-134,-131,-128,-127,-123,-121,-119,-119,-121,-115,-104,-100,-110,-117,-117,-114,-115,-120,-116,-117,-114,-111,-112,-108,-109,-112,-111,-118,-125,-127,-121,-115,-115,-116,-111,-107,-116,-125,-124,-121,-128,-134,-127,-123,-117,-114,-121,-129,-123,-119,-128,-134,-131,-126,-121,-123,-123,-126,-122,-124,-129,-131,-130,-129,-128,-126,-133,-132,-133,-129,-127,-125,-131,-131,-131,-128,-134,-126,-126,-127,-131,-134,-134,-136,-137,-137,-133,-134,-135,-127,-128,-130,-130,-132,-131,-139,-142,-138,-136,-135,-133,-131,-134,-133,-135,-134,-136,-135,-128,-133,-137,-132,-133,-137,-133,-134,-137,-136,-136,-136,-131,-124,-111,-105,-106,-100,-104,-104,-106,-104,-105,-107,-106,-105,-111,-115,-120,-125,-130,-137,-142,-143,-149,-154,-149,-144,-144,-142,-130,-121,-105,-66,-9,40,68,86,59,-63,-232,-354,-405,-405,-389,-343,-290,-235,-202,-179,-168,-157,-156,-159,-158,-158,-159,-161,-157,-154,-154,-153,-152,-152,-153,-155,-157,-154,-159,-161,-165,-163,-163,-160,-160,-160,-162,-173,-180,-183,-186,-186,-189,-186,-190,-192,-197,-199,-211,-218,-214,-227,-228,-230,-235,-239,-237,-242,-246,-249,-255,-263,-262,-267,-264,-263,-260,-259,-259,-255,-255,-247,-238,-228,-222,-213,-201,-185,-182,-173,-170,-159,-156,-151,-148,-140,-140,-135,-126,-120,-120,-117,-117,-117,-115,-115,-117,-116,-111,-108,-107,-104,-107,-106,-107,-112,-113,-115,-113,-113,-116,-114,-115,-109,-112,-112,-115,-121,-122,-121,-122,-122,-117,-119,-117,-114,-119,-122,-122,-121,-122,-126,-122,-122,-119,-123,-118,-121,-120,-122,-122,-125,-126,-128,-128,-121,-118,-121,-120,-121,-121,-127,-128,-130,-126,-128,-123,-122,-119,-118,-120,-123,-128,-129,-125,-124,-127,-120,-121,-118,-119,-111,-107,-104,-106,-101,-103,-96,-91,-89,-87,-90,-93,-92,-96,-103,-105,-109,-118,-115,-119,-122,-125,-131,-132,-134,-131,-130,-127,-118,-107,-100,-61,-12,38,63,76,63,-18,-195,-351,-429,-441,-398,-339,-267,-206,-177,-155,-149,-140,-142,-141,-145,-137,-135,-134,-130,-128,-132,-137,-138,-142,-143,-141,-140,-141,-143,-138,-134,-137,-143,-147,-144,-148,-151,-154,-158,-155,-158,-161,-165,-168,-170,-178,-189,-190,-191,-199,-200,-204,-209,-214,-220,-233,-237,-238,-244,-245,-248,-251,-247,-252,-260,-259,-256,-256,-254,-247,-245,-235,-227,-209,-200,-190,-178,-169,-160,-156,-146,-144,-133,-129,-124,-119,-115,-113,-113,-111,-114,-117,-113,-113,-110,-107,-109,-107,-102,-104,-101,-105,-102,-105,-110,-113,-112,-108,-106,-101,-101,-101,-102,-109,-109,-106,-111,-112,-107,-105,-103,-102,-104,-104,-109,-114,-111,-109,-111,-111,-105,-101,-108,-108,-107,-109,-110,-115,-107,-105,-112,-113,-107,-106,-105,-103,-107,-109,-108,-108,-110,-112,-113,-105,-104,-102,-101,-104,-109,-112,-107,-106,-107,-110,-109,-104,-102,-104,-102,-105,-105,-101,-95,-89,-87,-83,-78,-71,-67,-65,-71,-76,-78,-78,-79,-81,-86,-86,-97,-101,-107,-110,-114,-117,-121,-119,-113,-110,-113,-95,-81,-68,-32,28,71,83,92,73,-30,-200,-330,-396,-397,-351,-288,-219,-174,-147,-137,-128,-123,-124,-116,-112,-109,-111,-113,-120,-120,-117,-113,-119,-121,-120,-118,-120,-115,-113,-118,-118,-119,-117,-127,-126,-131,-131,-131,-132,-137,-142,-149,-148,-153,-160,-163,-168,-164,-169,-176,-179,-185,-190,-201,-207,-212,-212,-214,-219,-220,-223,-221,-224,-230,-236,-238,-234,-227,-219,-214,-197,-193,-185,-173,-162,-158,-148,-142,-137,-123,-115,-104,-100,-94,-95,-94,-95,-94,-90,-90,-96,-89,-91,-82,-81,-82,-87,-88,-86,-92,-90,-89,-88,-86,-80,-80,-83,-87,-88,-87,-90,-89,-92,-89,-84,-81,-89,-90,-92,-97,-102,-98,-95,-93,-90,-88,-87,-85,-85,-87,-90,-91,-90,-95,-91,-88,-91,-85,-80,-89,-91,-88,-86,-85,-82,-86,-87,-87,-86,-83,-81,-81,-81,-85,-82,-78,-82,-82,-87,-88,-85,-79,-79,-77,-81,-89,-83,-84,-72,-64,-57,-49,-54,-50,-46,-43,-43,-45,-52,-45,-46,-50,-47,-49,-52,-60,-63,-78,-88,-93,-93,-92,-85,-74,-78,-73,-58,-39,-16,34,92,130,154,153,78,-86,-240,-322,-334,-314,-288,-237,-185,-144,-120,-100,-93,-84,-82,-88,-90,-91,-88,-88,-86,-84,-85,-87,-85,-80,-80,-86,-86,-93,-90,-90,-88,-84,-88,-89,-87,-85,-91,-91,-98,-102,-107,-115,-116,-113,-115,-127,-128,-133,-141,-144,-147,-154,-155,-164,-170,-172,-167,-170,-175,-180,-186,-191,-197,-197,-195,-187,-184,-176,-162,-144,-133,-117,-107,-97,-82,-65,-51,-35,-32,-32,-32,-32,-37,-43,-41,-50,-56,-54,-57,-61,-56,-61,-61,-62,-67,-68,-68,-69,-74,-79,-75,-72,-71,-65,-64,-69,-78,-81,-78,-76,-78,-80,-81,-77,-70,-71,-72,-72,-73,-75,-76,-71,-71,-66,-56,-27,31,105,153,186,168,44,-132,-267,-320,-323,-300,-260,-202,-155,-113,-93,-87,-84,-81,-80,-77,-75,-75,-67,-70,-68,-66,-68,-66,-64,-70,-67,-59,-58,-65,-66,-71,-66,-68,-75,-75,-74,-73,-75,-71,-67,-75,-79,-84,-92,-98,-97,-103,-104,-107,-108,-105,-111,-119,-124,-125,-126,-131,-131,-133,-129,-123,-117,-109,-95,-93,-84,-83,-80,-69,-62,-57,-49,-36,-31,-29,-36,-34,-39,-47,-41,-42,-44,-44,-43,-38,-34,-33,-40,-41,-41,-51,-51,-47,-47,-44,-48,-44,-44,-47,-45,-47,-49,-52,-53,-44,-48,-45,-46,-40,-41,-36,-25,-13,-4,4,12,18,14,19,15,8,-3,-17,-24,-34,-46,-57,-69,-73,-71,-62,-60,-63,-58,-47,-37,-25,15,72,126,150,167,149,42,-128,-256,-304,-308,-285,-241,-185,-148,-113,-92,-79,-68,-69,-70,-72,-75,-73,-74,-78,-72,-68,-63,-64,-68,-67,-77,-74,-71,-69,-73,-79,-72,-74,-74,-70,-75,-77,-83,-89,-95,-98,-98,-103,-102,-104,-114,-116,-127,-131,-137,-139,-148,-154,-158,-157,-154,-156,-160,-165,-170,-175,-179,-174,-171,-163,-157,-144,-137,-128,-122,-111,-105,-96,-89,-81,-67,-57,-49,-41,-41,-44,-46,-46,-44,-46,-39,-42,-44,-39,-38,-33,-34,-34,-37,-38,-40,-39,-40,-38,-40,-32,-30,-28,-32,-35,-36,-41,-42,-39,-41,-43,-47,-43,-40,-35,-40,-43,-43,-49,-53,-51,-43,-42,-40,-37,-39,-45,-44,-48,-47,-50,-45,-46,-45,-44,-40,-40,-40,-42,-47,-50,-52,-51,-53,-54,-44,-38,-42,-41,-40,-46,-48,-52,-52,-50,-51,-47,-46,-45,-42,-44,-46,-45,-45,-45,-50,-53,-49,-41,-44,-44,-45,-47,-50,-44,-46,-46,-50,-44,-47,-42,-44,-44,-47,-44,-45,-46,-45,-43,-43,-41,-41,-40,-44,-38,-41,-42,-38,-33,-28,-20,-17,-14,-9,-7,-1,-3,-4,-9,-11,-10,-14,-19,-19,-28,-32,-42,-48,-51,-54,-54,-53,-53,-52,-41,-31,-25,-9,27,84,128,149,156,132,18,-144,-269,-317,-317,-288,-238,-186,-140,-107,-88,-74,-66,-60,-60,-56,-58,-56,-59,-62,-67,-67,-64,-62,-62,-60,-58,-63,-68,-74,-71,-73,-72,-70,-76,-72,-69,-73,-80,-81,-86,-92,-93,-96,-105,-106,-103,-103,-106,-114,-122,-127,-132,-139,-141,-144,-148,-152,-154,-153,-159,-157,-164,-171,-176,-176,-179,-179,-182,-173,-171,-173,-162,-160,-157,-157,-149,-145,-128,-116,-100,-92,-92,-86,-78,-76,-66,-58,-45,-41,-40,-34,-35,-38,-38,-38,-38,-36,-46,-42,-45,-41,-44,-46,-46,-44,-43,-48,-47,-44,-46,-51,-53,-56,-52,-42,-47,-52,-53,-52,-52,-54,-54,-55,-54,-49,-46,-49,-42,-37,-43,-37,-15,44,97,128,132,63,-104,-261,-332,-348,-329,-298,-233,-160,-116,-88,-71,-58,-50,-48,-49,-46,-51,-53,-54,-54,-52,-52,-50,-50,-50,-48,-50,-52,-58,-65,-63,-67,-63,-66,-63,-68,-71,-73,-70,-80,-86,-89,-90,-97,-101,-99,-102,-105,-109,-115,-119,-126,-131,-136,-140,-146,-141,-140,-141,-140,-142,-138,-136,-133,-122,-120,-110,-105,-96,-82,-74,-64,-54,-51,-49,-46,-41,-38,-37,-38,-34,-36,-36,-35,-39,-45,-50,-53,-48,-46,-47,-40,-39,-43,-43,-40,-42,-44,-40,-54,-52,-52,-52,-46,-46,-41,-38,-42,-54,-54,-52,-54,-57,-55,-53,-48,-50,-48,-47,-48,-52,-52,-54,-61,-54,-54,-52,-53,-51,-52,-52,-44,-38,-30,-26,-13,1,17,20,19,20,19,8,-4,-16,-24,-31,-41,-49,-47,-55,-62,-62,-63,-62,-62,-52,-39,-26,3,48,99,124,134,124,55,-110,-260,-341,-350,-321,-250,-181,-142,-108,-85,-74,-69,-72,-70,-69,-69,-62,-64,-59,-64,-64,-68,-66,-68,-71,-70,-71,-72,-67,-68,-72,-72,-77,-81,-84,-90,-88,-92,-91,-93,-87,-90,-93,-96,-102,-112,-114,-116,-122,-126,-132,-133,-136,-145,-145,-150,-158,-163,-166,-165,-170,-178,-173,-168,-173,-171,-168,-165,-162,-157,-151,-141,-133,-122,-108,-97,-89,-81,-74,-71,-69,-62,-57,-56,-53,-44,-40,-44,-41,-41,-43,-49,-50,-45,-47,-46,-48,-45,-42,-39,-44,-43,-46,-46,-47,-48,-46,-47,-44,-46,-40,-43,-42,-48,-53,-52,-47,-51,-51,-50,-50,-48,-43,-44,-44,-47,-54,-55,-55,-50,-46,-44,-46,-48,-46,-48,-52,-53,-51,-55,-54,-51,-48,-49,-42,-42,-44,-50,-47,-52,-48,-53,-54,-49,-45,-42,-45,-42,-44,-48,-53,-53,-48,-48,-46,-45,-45,-46,-42,-40,-44,-46,-51,-49,-45,-46,-46,-42,-39,-38,-36,-36,-42,-47,-47,-49,-46,-44,-40,-42,-43,-36,-38,-43,-45,-44,-39,-31,-22,-16,-15,-17,-9,-7,-7,-12,-11,-10,-8,-16,-20,-18,-26,-31,-36,-44,-46,-54,-52,-51,-50,-50,-43,-40,-28,-21,-2,39,90,130,150,153,103,-40,-203,-295,-329,-314,-274,-218,-163,-119,-89,-71,-62,-56,-51,-53,-54,-56,-55,-59,-60,-57,-58,-58,-58,-56,-54,-54,-56,-63,-63,-67,-71,-72,-72,-63,-66,-66,-76,-78,-82,-83,-90,-89,-91,-99,-99,-103,-101,-106,-112,-119,-120,-129,-132,-133,-136,-140,-139,-137,-146,-145,-148,-153,-155,-163,-164,-162,-160,-154,-151,-155,-154,-150,-148,-145,-140,-125,-110,-105,-96,-89,-76,-71,-64,-57,-45,-35,-26,-23,-26,-26,-27,-26,-30,-31,-36,-36,-39,-36,-38,-40,-39,-37,-35,-30,-32,-33,-37,-40,-38,-38,-33,-29,-34,-30,-28,-29,-29,-32,-34,-39,-37,-32,-36,-33,-32,-28,-25,-36,-28,-2,62,114,143,130,11,-162,-281,-328,-323,-298,-249,-185,-122,-80,-56,-45,-29,-22,-26,-23,-20,-24,-33,-30,-29,-25,-24,-27,-29,-29,-28,-29,-33,-31,-34,-37,-38,-40,-39,-36,-34,-35,-46,-44,-47,-50,-57,-65,-65,-67,-68,-66,-69,-74,-77,-82,-83,-88,-91,-94,-98,-95,-90,-93,-93,-87,-84,-80,-79,-70,-62,-50,-37,-27,-17,-13,-7,-7,-7,-8,-9,-7,-10,-11,-10,-6,-2,-1,-6,-11,-18,-16,-17,-20,-19,-20,-16,-16,-18,-14,-13,-12,-23,-28,-28,-30,-24,-25,-22,-27,-27,-28,-26,-28,-28,-25,-30,-27,-31,-27,-19,-23,-30,-32,-34,-32,-30,-32,-37,-38,-35,-36,-28,-30,-32,-31,-37,-39,-29,-24,-17,1,16,23,33,30,25,24,19,17,11,-4,-12,-17,-25,-34,-44,-46,-48,-55,-49,-41,-32,-16,-8,10,55,117,165,190,201,171,42,-124,-237,-292,-288,-262,-222,-172,-125,-97,-80,-70,-66,-62,-64,-56,-52,-55,-52,-56,-54,-59,-61,-60,-62,-57,-53,-53,-50,-45,-47,-59,-64,-71,-72,-64,-66,-75,-72,-73,-73,-77,-84,-91,-94,-99,-96,-103,-104,-106,-104,-106,-110,-115,-123,-126,-127,-133,-135,-137,-133,-134,-134,-133,-135,-141,-143,-138,-136,-128,-120,-109,-106,-94,-84,-76,-72,-67,-60,-50,-48,-50,-48,-40,-35,-34,-30,-28,-20,-27,-32,-41,-41,-39,-32,-30,-30,-28,-30,-28,-30,-31,-32,-36,-34,-39,-36,-34,-29,-29,-34,-33,-35,-34,-35,-40,-38,-39,-42,-36,-33,-36,-32,-36,-35,-32,-34,-40,-38,-28,-34,-36,-37,-35,-33,-39,-44,-39,-41,-41,-35,-33,-33,-31,-31,-36,-39,-40,-40,-47,-45,-41,-37,-31,-41,-37,-34,-34,-37,-31,-34,-41,-44,-42,-37,-35,-34,-39,-42,-30,-34,-40,-46,-43,-42,-36,-35,-38,-37,-37,-35,-39,-44,-46,-44,-39,-39,-34,-33,-34,-38,-39,-37,-36,-39,-38,-35,-28,-17,-14,-15,-14,-7,-5,-7,-5,-9,-10,-6,0,-8,-12,-19,-19,-29,-42,-43,-44,-47,-55,-50,-47,-38,-30,-20,-16,-6,27,92,152,187,218,196,69,-99,-219,-273,-273,-260,-235,-185,-142,-104,-84,-73,-63,-60,-53,-56,-60,-60,-60,-59,-60,-55,-51,-50,-58,-59,-57,-60,-67,-69,-72,-75,-72,-69,-69,-68,-74,-78,-76,-82,-86,-91,-92,-89,-92,-98,-102,-104,-106,-110,-114,-119,-122,-124,-133,-131,-135,-135,-137,-134,-134,-146,-154,-158,-152,-154,-160,-158,-155,-149,-142,-142,-142,-136,-134,-125,-119,-108,-97,-87,-82,-81,-72,-65,-66,-62,-59,-59,-55,-52,-45,-44,-42,-39,-40,-38,-35,-36,-32,-27,-32,-30,-28,-25,-23,-29,-35,-35,-37,-38,-42,-39,-39,-31,-29,-31,-36,-36,-41,-40,-42,-43,-43,-38,-36,-35,-32,-35,-36,-41,-41,-40,-38,-37,-39,-40,-32,-30,-31,-31,-35,-40,-40,-41,-38,-37,-37,-39,-42,-37,-35,-36,-37,-35,-31,-42,-44,-41,-35,-33,-31,-31,-32,-40,-40,-38,-41,-39,-36,-35,-34,-27,-18,-14,-10,-12,-12,-10,-8,-2,-4,-4,-4,-3,1,-2,-14,-22,-27,-34,-36,-40,-38,-38,-45,-43,-42,-37,-36,-36,-25,-9,22,71,131,163,178,170,87,-76,-224,-294,-307,-284,-241,-190,-144,-108,-81,-65,-53,-55,-54,-50,-54,-48,-47,-41,-43,-44,-44,-46,-47,-52,-53,-48,-55,-54,-51,-48,-47,-49,-50,-53,-62,-62,-60,-64,-63,-70,-69,-73,-69,-76,-82,-88,-96,-98,-102,-117,-121,-121,-122,-128,-134,-139,-140,-153,-157,-157,-161,-166,-172,-172,-172,-166,-165,-165,-159,-154,-147,-134,-117,-101,-92,-78,-61,-46,-40,-29,-23,-27,-25,-23,-18,-17,-15,-17,-14,-17,-21,-26,-26,-24,-30,-35,-37,-33,-39,-34,-35,-37,-37,-39,-40,-44,-40,-40,-41,-36,-36,-34,-33,-38,-40,-41,-45,-41,-41,-40,-39,-39,-28,-23,-17,15,64,120,148,158,122,-8,-189,-309,-337,-315,-258,-192,-127,-85,-68,-53,-42,-40,-38,-35,-33,-32,-37,-39,-40,-37,-39,-32,-30,-28,-25,-33,-36,-38,-38,-43,-39,-40,-41,-44,-43,-39,-47,-49,-45,-52,-58,-61,-62,-67,-73,-75,-72,-76,-79,-84,-92,-102,-107,-111,-113,-117,-116,-119,-122,-118,-116,-114,-113,-109,-102,-93,-88,-76,-64,-52,-41,-29,-25,-23,-23,-19,-14,-10,-15,-12,-7,-4,-3,-6,-10,-9,-9,-12,-10,-13,-10,-11,-8,-11,-9,-10,-15,-15,-13,-15,-15,-19,-19,-13,-8,-6,-10,-16,-19,-21,-16,-19,-19,-16,-14,-11,-13,-12,-19,-20,-22,-22,-22,-16,-6,2,14,30,42,51,58,55,49,44,31,25,18,10,2,-1,-8,-17,-28,-37,-32,-31,-29,-26,-14,-2,9,37,80,123,147,160,150,70,-93,-243,-309,-319,-284,-210,-150,-101,-72,-52,-38,-37,-38,-39,-32,-28,-26,-22,-25,-30,-32,-34,-32,-36,-39,-32,-32,-32,-34,-33,-38,-40,-40,-44,-44,-43,-46,-42,-41,-47,-55,-59,-61,-68,-71,-75,-79,-80,-82,-86,-89,-93,-103,-103,-110,-117,-119,-119,-125,-133,-127,-128,-130,-129,-129,-128,-127,-120,-116,-104,-94,-80,-71,-63,-57,-50,-42,-34,-26,-20,-18,-16,-11,-6,-1,-1,-4,-7,-8,-10,-8,-8,-7,-2,-2,-2,-1,-4,-8,-8,-8,-6,-4,-9,-9,-6,-7,-2,-1,-7,-13,-13,-15,-13,-11,-11,-7,-9,-7,-11,-13,-15,-15,-12,-11,-16,-14,-11,-9,-10,-13,-12,-13,-14,-19,-19,-16,-16,-14,-8,-4,-8,-9,-7,-10,-14,-10,-13,-13,-10,-8,-11,-10,-4,-8,-12,-15,-17,-14,-15,-13,-6,-7,-7,-6,-10,-10,-11,-16,-15,-17,-15,-12,-7,-8,-5,-8,-12,-11,-11,-11,-14,-13,-12,-9,-6,-7,-6,-6,-10,-9,-13,-10,-12,-4,10,16,22,20,19,22,23,26,27,26,23,24,23,14,17,12,1,-6,-13,-9,-15,-23,-20,-18,-13,-13,-8,6,11,34,84,139,174,193,202,150,3,-165,-268,-290,-269,-222,-160,-116,-74,-47,-27,-23,-18,-18,-20,-19,-20,-21,-20,-16,-14,-13,-11,-13,-17,-24,-26,-26,-26,-25,-25,-28,-27,-26,-26,-29,-30,-33,-36,-40,-43,-44,-48,-50,-52,-54,-57,-64,-71,-74,-80,-82,-84,-92,-88,-88,-86,-92,-97,-101,-105,-113,-109,-114,-111,-114,-113,-110,-103,-88,-86,-83,-78,-72,-62,-58,-47,-35,-19,-19,-11,-6,-9,-7,-10,-12,-11,-8,-8,-4,-3,-5,-12,-10,-11,-12,-12,-16,-24,-20,-17,-12,-12,-14,-13,-13,-16,-16,-17,-16,-20,-16,-18,-17,-12,-11,-17,-23,-23,-21,-18,-17,-16,-16,-4,-8,-13,-11,-8,-7,-4,28,91,153,203,225,146,-31,-179,-255,-275,-265,-245,-208,-150,-86,-36,-11,0,12,8,-2,-7,-15,-10,-9,-8,-2,1,4,-2,-13,-11,-15,-20,-22,-19,-25,-29,-27,-27,-27,-31,-32,-38,-43,-39,-38,-43,-45,-45,-48,-50,-50,-60,-66,-72,-82,-84,-81,-77,-74,-72,-79,-81,-81,-77,-78,-76,-75,-65,-50,-30,-19,-4,11,16,27,29,30,32,27,23,25,22,22,26,26,22,9,3,4,-1,-6,-11,-17,-13,-9,-16,-20,-24,-21,-23,-31,-32,-32,-32,-33,-30,-31,-29,-30,-30,-34,-38,-36,-34,-32,-35,-33,-29,-32,-28,-32,-32,-38,-40,-38,-38,-37,-30,-20,-11,0,44,107,169,211,237,222,106,-66,-188,-239,-238,-217,-177,-120,-74,-40,-33,-31,-28,-26,-23,-23,-31,-35,-34,-40,-39,-38,-36,-36,-43,-49,-45,-44,-40,-37,-41,-47,-44,-45,-48,-58,-64,-62,-58,-54,-59,-61,-72,-75,-73,-81,-95,-97,-89,-92,-99,-101,-103,-104,-115,-109,-109,-118,-115,-123,-124,-117,-115,-107,-106,-103,-101,-99,-95,-86,-74,-60,-56,-48,-41,-28,-23,-29,-31,-22,-19,-16,-15,-12,-7,0,0,-4,-4,-9,-6,-15,-22,-16,-11,-2,0,1,-8,-9,-16,-26,-29,-32,-29,-32,-27,-32,-29,-32,-40,-39,-36,-32,-37,-34,-38,-37,-32,-38,-36,-41,-40,-48,-39,-36,-41,-36,-32,-34,-37,-32,-30,-34,-36,-36,-44,-48,-42,-42,-36,-28,-28,-31,-40,-46,-47,-46,-49,-49,-42,-32,-26,-31,-37,-38,-47,-46,-46,-45,-43,-49,-46,-32,-33,-37,-44,-47,-50,-51,-52,-51,-52,-52,-44,-44,-43,-43,-43,-47,-56,-60,-60,-56,-55,-49,-47,-52,-48,-49,-49,-48,-57,-61,-62,-63,-61,-57,-52,-48,-51,-57,-57,-54,-52,-51,-64,-73,-62,-51,-49,-47,-55,-66,-61,-59,-61,-64,-61,-55,-54,-57,-61,-60,-65,-68,-68,-67,-63,-61,-60,-64,-59,-63,-61,-69,-70,-72,-72,-66,-69,-64,-67,-63,-65,-67,-69,-68,-73,-72,-75,-80,-77,-70,-67,-68,-79,-83,-82,-82,-83,-86,-88,-90,-86,-86,-91,-92,-85,-98,-102,-116,-112,-118,-98,-85,-70,-49,-42,-41,-40,-54,-63,-69,-67,-75,-89,-94,-97,-106,-113,-113,-116,-120,-118,-109,-92,-75,-43,10,60,89,112,101,0,-170,-307,-371,-383,-355,-303,-240,-202,-174,-153,-149,-147,-147,-144,-144,-141,-136,-136,-139,-131,-137,-132,-140,-141,-130,-138,-136,-143,-150,-152,-150,-152,-158,-158,-162,-157,-155,-172,-169,-162,-163,-166,-167,-171,-181,-188,-184,-190,-194,-193,-184,-181,-182,-177,-184,-193,-199,-202,-213,-208,-209,-211,-208,-213,-210,-209,-207,-207,-207,-208,-211,-207,-200,-197,-196,-182,-179,-182,-175,-169,-171,-162,-150,-143,-136,-134,-127,-121,-118,-115,-113,-112,-111,-110,-102,-103,-102,-104,-106,-100,-99,-94,-88,-90,-88,-92,-98,-101,-102,-93,-90,-93,-94,-101,-98,-94,-96,-95,-97,-89,-89,-91,-88,-89,-86,-92,-105,-108,-108,-108,-103,-94,-89,-92,-94,-99,-99,-103,-94,-92,-93,-95,-90,-85,-86,-96,-92,-94,-92,-95,-97,-95,-99,-98,-94,-85,-81,-92,-94,-94,-95,-94,-91,-89,-98,-102,-96,-85,-90,-88,-91,-100,-105,-93,-98,-94,-82,-83,-82,-96,-97,-94,-101,-106,-96,-94,-98,-95,-88,-88,-84,-85,-94,-93,-101,-116,-106,-98,-88,-88,-88,-86,-87,-82,-70,-64,-76,-84,-83,-68,-50,-50,-55,-56,-62,-66,-77,-83,-87,-88,-100,-99,-97,-105,-104,-92,-89,-99,-101,-101,-94,-85,-53,-3,65,116,147,154,106,-48,-210,-314,-346,-324,-315,-281,-226,-178,-141,-128,-128,-128,-118,-113,-107,-110,-116,-116,-118,-111,-106,-112,-116,-115,-116,-117,-112,-113,-111,-112,-111,-116,-123,-121,-118,-125,-128,-123,-127,-124,-126,-127,-134,-154,-158,-158,-160,-162,-162,-171,-186,-192,-195,-202,-196,-196,-200,-216,-224,-223,-224,-226,-234,-238,-234,-232,-242,-230,-241,-245,-231,-215,-186,-168,-161,-159,-144,-118,-103,-103,-104,-110,-106,-93,-89,-93,-93,-90,-85,-87,-97,-96,-100,-107,-105,-104,-90,-84,-100,-96,-96,-106,-104,-101,-105,-108,-107,-106,-102,-97,-92,-98,-109,-107,-109,-100,-99,-103,-105,-103,-108,-100,-100,-97,-96,-98,-106,-88,-40,18,66,115,88,-68,-245,-345,-366,-364,-358,-332,-306,-252,-189,-140,-116,-103,-98,-94,-89,-80,-74,-78,-86,-90,-92,-82,-69,-81,-95,-94,-84,-82,-97,-111,-103,-104,-110,-113,-125,-125,-135,-149,-150,-152,-163,-178,-167,-160,-155,-154,-158,-166,-160,-174,-186,-184,-175,-178,-179,-179,-174,-180,-190,-190,-182,-172,-162,-146,-133,-126,-117,-107,-99,-98,-92,-88,-85,-83,-72,-63,-54,-57,-60,-56,-62,-72,-72,-67,-72,-76,-80,-72,-67,-73,-73,-76,-76,-79,-72,-68,-72,-76,-70,-68,-66,-72,-75,-80,-82,-82,-80,-80,-78,-80,-79,-75,-75,-82,-86,-88,-86,-83,-86,-81,-76,-71,-68,-72,-71,-78,-87,-92,-95,-88,-74,-67,-86,-88,-82,-86,-93,-98,-90,-87,-89,-87,-85,-86,-86,-84,-83,-86,-91,-91,-92,-90,-93,-92,-86,-80,-67,-54,-38,-37,-37,-32,-24,-20,-24,-25,-32,-40,-52,-60,-75,-87,-100,-105,-115,-121,-117,-114,-117,-118,-120,-122,-110,-96,-89,-72,-23,39,85,107,107,50,-115,-280,-369,-397,-376,-311,-251,-204,-164,-141,-128,-125,-127,-124,-118,-119,-123,-126,-119,-117,-111,-114,-120,-115,-109,-112,-118,-122,-131,-129,-122,-118,-114,-123,-125,-130,-128,-129,-133,-133,-143,-143,-138,-140,-139,-144,-150,-160,-167,-166,-167,-173,-179,-174,-173,-178,-182,-190,-199,-194,-197,-197,-206,-213,-221,-219,-213,-214,-212,-209,-205,-199,-189,-178,-169,-162,-156,-143,-126,-120,-112,-105,-97,-101,-98,-87,-79,-73,-68,-73,-75,-69,-67,-70,-72,-77,-82,-75,-73,-63,-58,-55,-62,-70,-72,-68,-66,-64,-70,-67,-66,-71,-70,-72,-73,-78,-74,-70,-64,-64,-65,-69,-63,-59,-56,-55,-63,-72,-65,-63,-66,-71,-68,-69,-61,-58,-54,-52,-62,-69,-68,-58,-59,-61,-59,-60,-57,-58,-55,-51,-53,-61,-62,-61,-58,-50,-53,-56,-61,-59,-61,-68,-64,-68,-61,-60,-62,-63,-64,-67,-67,-63,-64,-68,-66,-63,-62,-56,-51,-52,-54,-55,-59,-61,-63,-70,-69,-64,-61,-59,-61,-62,-57,-54,-59,-65,-65,-59,-58,-58,-51,-39,-28,-14,-18,-31,-31,-23,-17,-13,-8,-2,-8,-19,-25,-35,-37,-46,-63,-72,-73,-72,-71,-77,-64,-57,-45,-39,-27,1,51,105,143,172,188,157,36,-127,-248,-300,-295,-272,-223,-180,-133,-110,-100,-90,-76,-74,-73,-70,-70,-66,-74,-72,-80,-72,-70,-68,-67,-70,-72,-75,-74,-75,-71,-71,-70,-72,-81,-82,-79,-79,-78,-75,-76,-84,-91,-104,-107,-102,-102,-111,-115,-111,-117,-128,-136,-141,-141,-140,-151,-157,-157,-152,-156,-162,-178,-185,-185,-180,-179,-183,-188,-190,-184,-172,-175,-168,-156,-149,-137,-128,-116,-107,-96,-81,-64,-66,-63,-48,-41,-31,-26,-21,-17,-25,-25,-27,-40,-29,-28,-30,-32,-37,-44,-37,-39,-31,-24,-25,-27,-17,-22,-28,-28,-36,-39,-40,-28,-29,-34,-35,-26,-26,-39,-42,-35,-29,-34,-28,-32,-26,-23,-18,-16,0,43,104,168,213,203,75,-116,-235,-275,-282,-284,-257,-226,-181,-130,-91,-58,-47,-28,-25,-23,-23,-26,-20,-20,-19,-24,-31,-28,-20,-16,-16,-20,-19,-22,-23,-20,-19,-20,-26,-20,-25,-24,-25,-23,-25,-28,-34,-51,-52,-47,-52,-57,-55,-48,-53,-64,-64,-69,-75,-72,-69,-75,-68,-62,-75,-80,-78,-69,-68,-69,-50,-41,-27,-19,-5,10,16,20,22,13,-4,-9,1,9,12,16,16,16,17,22,25,24,12,0,-3,-10,-8,6,14,14,14,17,10,3,4,7,9,8,-1,-8,-6,0,5,3,7,11,17,15,9,8,4,16,25,16,16,19,21,27,39,48,52,29,22,36,58,66,62,44,26,28,47,67,71,64,54,48,51,48,41,48,56,55,49,39,53,75,83,82,72,56,52,58,60,44,37,51,65,84,94,68,54,68,78,66,46,49,57,59,64,70,84,83,73,67,76,81,83,90,83,78,91,106,100,97,93,94,118,125,124,119,120,119,126,125,102,74,66,66,62,56,55,63,78,88,93,100,106,139,205,263,278,280,296,238,77,-88,-167,-184,-168,-134,-75,-26,8,50,64,75,83,86,101,99,74,62,60,74,85,91,93,93,86,84,76,72,73,81,96,94,88,66,59,64,74,70,57,52,59,56,51,52,67,65,45,27,20,20,23,25,15,9,6,0,-4,-4,5,10,-5,-28,-32,-26,-37,-39,-36,-32,-34,-35,-26,-14,-9,-3,0,0,13,20,27,38,42,60,65,67,70,88,105,127,144,150,143,134,129,113,103,109,118,120,115,100,91,106,113,112,120,125,136,146,135,100,85,91,100,118,119,116,105,95,102,103,104,105,105,120,109,94,109,111,115,130,157,186,204,214,185,58,-92,-194,-236,-238,-225,-207,-195,-185,-153,-101,-52,-2,40,74,102,121,124,125,113,126,135,141,145,139,132,117,113,122,145,138,131,120,122,136,145,131,109,95,103,119,110,94,93,90,84,85,72,74,76,79,88,93,76,54,40,39,57,76,74,54,45,47,42,51,66,77,99,120,108,88,93,121,130,115,102,94,112,119,125,131,137,139,147,147,142,137,138,132,125,119,121,119,118,123,126,151,154,108,64,72,89,85,87,88,93,92,93,92,103,113,113,90,76,67,63,77,81,79,76,73,79,92,112,126,113,79,59,74,91,92,105,104,101,109,129,155,183,207,237,261,262,190,17,-159,-229,-217,-174,-128,-65,-3,39,62,70,74,80,71,54,75,93,88,63,61,72,88,86,70,58,57,63,69,71,78,90,89,66,36,42,67,69,46,22,24,48,50,30,14,11,20,25,15,-16,-18,-13,-16,-17,-11,-16,-16,-29,-50,-45,-23,-14,-16,-55,-78,-59,-39,-26,-15,-13,12,24,5,-22,-8,25,45,55,54,58,55,58,62,61,72,85,97,87,64,52,41,52,71,68,63,45,59,72,86,88,79,50,41,40,43,41,53,56,59,62,67,45,22,37,55,56,49,26,22,45,65,70,63,43,26,39,55,55,40,34,45,39,22,18,26,35,39,33,33,31,43,42,43,50,57,56,47,47,60,60,35,-3,-9,13,33,36,34,41,59,68,50,23,18,30,24,19,31,29,31,39,38,35,32,27,34,47,50,43,26,19,38,45,35,19,14,31,46,52,54,41,12,20,39,38,9,0,18,35,42,47,41,48,59,73,64,57,56,57,44,40,47,63,75,63,53,50,46,41,38,35,23,-2,-16,-2,13,19,24,39,60,75,89,112,152,192,211,201,134,-32,-184,-254,-264,-249,-196,-110,-58,-35,-24,-12,-6,-3,-8,-7,-3,13,19,9,-19,-25,-4,-1,4,8,15,7,-6,1,2,-16,-28,-34,-17,1,-11,-39,-44,-28,-24,-16,-5,-16,-40,-61,-63,-54,-51,-53,-56,-48,-46,-36,-38,-64,-87,-102,-85,-66,-65,-76,-105,-142,-121,-102,-102,-96,-97,-101,-86,-74,-57,-42,-48,-71,-68,-42,-16,-4,1,5,9,15,15,12,16,28,28,38,39,39,41,28,2,-4,-3,-1,13,26,20,4,0,-1,-4,12,17,7,-5,2,10,17,20,17,25,35,26,24,8,-17,-16,0,15,24,16,14,10,19,14,18,23,33,35,41,72,136,198,226,220,108,-92,-241,-289,-265,-221,-181,-122,-43,15,30,42,57,67,57,42,50,57,67,69,74,78,67,45,19,15,34,50,55,35,4,3,15,30,35,35,25,22,19,8,-1,7,16,11,-1,1,-5,-29,-28,-17,-12,-10,-10,-5,1,-5,-32,-45,-35,-25,-6,1,-6,-15,-18,3,28,45,50,56,65,82,92,90,81,96,113,131,136,122,102,77,75,81,82,83,76,89,90,73,61,56,52,48,46,40,55,71,69,55,46,58,68,61,51,45,50,54,63,76,68,49,46,56,72,85,85,91,97,111,126,124,111,114,117,113,107,100,98,105,121,144,169,207,250,288,314,313,242,72,-109,-203,-206,-159,-96,-30,17,46,61,55,55,55,63,71,71,79,94,102,92,84,81,78,75,65,66,79,75,71,75,70,68,67,77,85,74,57,48,62,65,52,49,57,65,86,92,89,92,80,69,52,42,44,49,46,34,22,23,34,36,12,1,4,14,24,40,45,42,21,13,28,45,61,71,67,64,67,75,88,87,96,96,80,68,77,82,71,70,73,83,85,94,88,90,106,114,92,68,70,78,84,101,109,114,103,95,99,114,125,133,114,79,56,71,79,76,78,74,61,56,73,85,65,39,41,57,70,77,79,88,118,167,211,247,268,227,85,-91,-196,-231,-216,-180,-108,-41,-7,4,34,53,50,44,47,72,82,79,89,105,97,87,70,75,90,84,52,41,58,82,86,79,70,61,39,38,40,46,47,39,37,43,50,35,14,-1,-9,-5,-2,-4,-18,-36,-32,-12,3,-9,-22,-43,-53,-50,-35,-42,-49,-39,-31,-23,-12,0,-5,0,15,20,32,34,27,35,48,63,60,43,58,84,88,71,54,65,83,87,82,91,91,74,46,37,38,45,60,73,81,75,69,78,98,143,196,223,219,201,176,43,-147,-265,-292,-255,-202,-144,-86,-40,-15,8,35,44,39,23,21,32,36,28,22,26,10,3,5,33,42,15,-19,-26,-4,17,30,28,27,29,32,31,29,34,44,45,17,-12,-34,-33,-19,-10,-2,-11,-21,-38,-44,-47,-37,-39,-42,-50,-54,-50,-47,-46,-35,-17,-23,-31,-23,-12,0,24,43,46,20,13,37,51,46,31,24,19,15,25,43,61,84,107,147,182,202,219,205,104,-68,-192,-189,-127,-67,-32,-8,15,21,20,19,27,21,0,8,15,11,-7,-28,-39,-28,-11,-2,-15,-27,-23,-22,-18,-22,-31,-32,-19,-19,-31,-57,-59,-64,-61,-45,-40,-48,-71,-88,-88,-83,-64,-53,-73,-104,-121,-131,-137,-137,-136,-142,-144,-136,-133,-132,-133,-134,-115,-86,-64,-62,-59,-36,-16,-6,0,-7,0,13,3,-11,-15,-6,4,-2,-9,-8,8,26,45,79,124,155,179,194,187,82,-135,-298,-346,-322,-249,-174,-117,-86,-67,-48,-29,-18,-26,-27,-22,-22,-32,-23,-23,-41,-65,-59,-40,-29,-24,-19,-21,-32,-32,-30,-30,-29,-39,-52,-57,-61,-56,-59,-61,-60,-62,-64,-72,-88,-80,-59,-64,-74,-82,-91,-82,-75,-74,-57,-62,-77,-83,-68,-54,-48,-41,-33,-35,-36,-36,-31,-27,-15,-2,-9,-18,-8,-10,-21,-18,-9,-8,-13,-25,-32,-21,-11,-11,-28,-39,-45,-56,-52,-38,-23,-18,-31,-46,-51,-42,-40,-42,-53,-62,-55,-43,-42,-47,-49,-55,-45,-46,-63,-71,-63,-48,-42,-57,-63,-57,-51,-39,-37,-44,-55,-48,-40,-49,-72,-77,-64,-50,-45,-57,-62,-47,-35,-34,-52,-70,-62,-52,-58,-59,-58,-53,-46,-37,-46,-46,-42,-48,-62,-79,-66,-48,-45,-50,-53,-56,-61,-71,-71,-56,-34,-31,-55,-68,-66,-60,-64,-64,-70,-79,-76,-63,-47,-37,-28,-20,-18,-29,-44,-33,-1,20,14,13,-2,-8,-18,-26,-36,-43,-41,-51,-68,-72,-67,-64,-64,-67,-60,-46,-34,-25,12,63,89,102,125,100,-52,-253,-370,-397,-369,-306,-239,-187,-143,-112,-86,-80,-87,-89,-88,-83,-69,-66,-73,-91,-95,-81,-78,-79,-89,-96,-89,-80,-89,-110,-125,-119,-99,-86,-88,-110,-113,-103,-98,-104,-109,-106,-108,-105,-115,-111,-102,-103,-109,-113,-119,-103,-89,-93,-92,-83,-98,-111,-112,-109,-117,-109,-92,-87,-94,-101,-91,-80,-74,-64,-58,-44,-39,-37,-48,-58,-64,-46,-22,-16,-24,-41,-40,-28,-30,-25,-29,-31,-30,-32,-40,-48,-44,-40,-36,-59,-74,-72,-65,-44,-29,-42,-72,-88,-84,-76,-72,-66,-65,-61,-68,-70,-61,-66,-70,-71,-64,-64,-67,-76,-76,-73,-80,-79,-77,-70,-64,-66,-73,-62,-65,-76,-82,-80,-64,-58,-72,-91,-84,-80,-81,-78,-72,-74,-80,-85,-86,-86,-70,-69,-88,-94,-86,-76,-69,-80,-84,-76,-64,-74,-80,-76,-64,-66,-74,-70,-69,-80,-74,-81,-103,-98,-86,-78,-77,-82,-86,-83,-82,-88,-88,-79,-68,-70,-76,-76,-71,-72,-75,-82,-85,-84,-81,-91,-92,-83,-74,-85,-97,-95,-90,-85,-70,-66,-72,-81,-90,-89,-82,-81,-77,-62,-46,-53,-73,-57,-47,-44,-44,-42,-40,-47,-50,-61,-58,-74,-86,-82,-84,-94,-98,-96,-97,-94,-92,-82,-74,-77,-74,-51,1,52,79,94,91,44,-98,-260,-371,-419,-398,-344,-264,-189,-156,-146,-134,-119,-107,-112,-115,-117,-109,-98,-94,-89,-92,-98,-107,-122,-128,-115,-99,-91,-98,-106,-113,-125,-124,-120,-121,-118,-112,-104,-102,-119,-134,-134,-130,-137,-137,-146,-149,-156,-154,-144,-137,-128,-120,-122,-130,-136,-136,-124,-130,-154,-168,-153,-136,-132,-126,-127,-138,-134,-121,-113,-111,-107,-98,-105,-112,-95,-83,-77,-77,-70,-48,-36,-40,-44,-52,-53,-49,-38,-31,-40,-68,-96,-101,-96,-82,-73,-72,-86,-90,-88,-77,-64,-70,-98,-104,-88,-79,-86,-108,-112,-99,-93,-92,-93,-90,-88,-78,-78,-80,-76,-81,-95,-85,-80,-80,-82,-83,-88,-80,-68,-58,-33,16,64,86,88,31,-126,-303,-407,-424,-378,-303,-214,-154,-122,-104,-94,-90,-99,-92,-76,-66,-72,-84,-85,-75,-82,-85,-91,-87,-81,-88,-94,-93,-93,-104,-107,-101,-98,-100,-92,-92,-110,-124,-114,-96,-92,-106,-127,-139,-146,-148,-149,-142,-142,-149,-154,-144,-135,-153,-161,-164,-163,-159,-164,-166,-159,-154,-143,-136,-130,-134,-144,-132,-108,-97,-95,-93,-82,-81,-81,-77,-63,-58,-64,-76,-82,-78,-70,-68,-73,-81,-82,-70,-55,-64,-87,-96,-88,-67,-71,-76,-71,-77,-80,-76,-74,-73,-70,-83,-92,-99,-98,-90,-86,-76,-73,-70,-78,-89,-90,-80,-81,-87,-91,-77,-69,-81,-85,-78,-78,-94,-99,-91,-80,-78,-64,-68,-72,-67,-58,-66,-71,-56,-36,-35,-32,-24,-15,-4,-3,-5,-15,-32,-50,-70,-88,-88,-96,-99,-96,-89,-80,-73,-70,-59,-43,-22,24,82,113,120,121,75,-48,-213,-338,-399,-395,-352,-282,-205,-147,-115,-95,-84,-78,-75,-86,-88,-90,-95,-101,-94,-72,-62,-69,-84,-96,-99,-90,-88,-87,-101,-104,-93,-76,-79,-83,-89,-99,-104,-99,-91,-96,-117,-125,-113,-99,-91,-98,-114,-135,-138,-128,-136,-132,-133,-130,-136,-150,-152,-140,-140,-139,-131,-126,-140,-160,-156,-147,-145,-144,-141,-131,-121,-124,-109,-95,-87,-94,-90,-74,-59,-50,-64,-80,-74,-64,-62,-70,-66,-55,-33,-34,-50,-64,-61,-47,-48,-69,-95,-96,-82,-75,-66,-61,-48,-45,-42,-52,-67,-71,-64,-64,-85,-102,-101,-77,-64,-67,-81,-78,-69,-54,-51,-63,-88,-103,-90,-73,-73,-78,-83,-80,-75,-76,-84,-86,-85,-84,-81,-70,-69,-78,-97,-102,-98,-89,-85,-83,-81,-80,-84,-89,-92,-95,-81,-74,-83,-105,-107,-91,-86,-76,-77,-81,-84,-89,-97,-100,-94,-88,-78,-75,-90,-108,-107,-99,-96,-96,-86,-74,-82,-103,-116,-109,-94,-90,-97,-106,-107,-101,-99,-103,-110,-105,-104,-101,-94,-94,-91,-92,-92,-82,-76,-78,-83,-77,-61,-56,-61,-64,-63,-60,-58,-65,-82,-92,-95,-89,-93,-99,-99,-98,-111,-114,-96,-85,-97,-111,-101,-76,-42,4,67,117,156,170,122,-30,-207,-317,-354,-346,-322,-287,-235,-189,-154,-132,-110,-110,-119,-132,-132,-124,-122,-117,-104,-115,-132,-132,-121,-117,-117,-112,-111,-108,-111,-118,-136,-150,-143,-135,-131,-131,-127,-128,-128,-144,-148,-146,-141,-133,-130,-139,-160,-168,-167,-166,-178,-189,-193,-195,-192,-186,-190,-181,-170,-175,-172,-178,-174,-178,-185,-188,-185,-169,-156,-165,-179,-182,-170,-153,-137,-132,-127,-127,-120,-111,-100,-86,-94,-108,-120,-120,-126,-132,-124,-117,-112,-107,-115,-133,-147,-132,-129,-138,-133,-124,-115,-115,-138,-151,-140,-126,-124,-136,-145,-145,-141,-133,-123,-123,-132,-136,-134,-145,-148,-140,-140,-129,-122,-110,-118,-125,-92,-27,45,100,112,7,-173,-311,-372,-390,-379,-353,-312,-269,-217,-173,-137,-127,-128,-123,-121,-124,-124,-127,-137,-130,-127,-130,-131,-138,-151,-151,-136,-127,-126,-131,-140,-144,-151,-165,-177,-175,-167,-160,-166,-168,-162,-160,-175,-183,-200,-202,-195,-194,-203,-221,-235,-225,-219,-233,-247,-243,-230,-228,-221,-213,-220,-222,-211,-201,-197,-177,-156,-140,-135,-133,-138,-128,-126,-113,-111,-125,-133,-133,-137,-141,-145,-142,-137,-141,-134,-133,-139,-148,-143,-143,-150,-153,-163,-178,-180,-178,-171,-165,-164,-164,-167,-174,-171,-163,-164,-171,-185,-186,-174,-165,-156,-155,-150,-143,-143,-147,-149,-130,-125,-125,-126,-121,-120,-120,-127,-139,-142,-141,-139,-134,-136,-130,-127,-124,-115,-106,-88,-72,-31,29,88,123,107,20,-146,-300,-377,-397,-390,-357,-311,-241,-197,-175,-161,-147,-133,-130,-119,-123,-137,-142,-144,-145,-138,-131,-125,-120,-111,-95,-97,-108,-114,-120,-118,-104,-85,-72,-71,-82,-90,-101,-114,-119,-120,-125,-132,-140,-146,-139,-143,-144,-138,-151,-169,-175,-170,-163,-160,-158,-156,-156,-155,-153,-156,-161,-163,-155,-153,-161,-165,-153,-135,-125,-130,-137,-114,-111,-104,-104,-97,-94,-84,-77,-67,-57,-50,-54,-57,-51,-40,-37,-40,-33,-38,-34,-24,-20,-29,-41,-51,-55,-56,-54,-47,-49,-49,-50,-53,-50,-52,-57,-58,-49,-43,-44,-44,-40,-43,-41,-44,-44,-46,-46,-55,-47,-42,-44,-58,-60,-67,-63,-61,-60,-60,-69,-76,-71,-68,-66,-62,-58,-50,-44,-30,-15,-15,1,54,121,164,183,191,130,-27,-198,-281,-305,-280,-219,-162,-123,-90,-58,-38,-38,-31,-24,-20,-18,-21,-22,-22,-34,-37,-34,-29,-29,-35,-36,-36,-39,-49,-55,-58,-54,-50,-48,-47,-45,-49,-53,-61,-64,-70,-63,-65,-71,-85,-91,-101,-108,-108,-118,-125,-121,-124,-127,-131,-130,-124,-127,-130,-139,-143,-143,-129,-130,-143,-149,-144,-137,-137,-137,-124,-114,-99,-79,-56,-34,-10,-1,-6,4,12,10,6,19,16,14,14,3,0,4,7,8,13,12,7,5,7,5,6,5,-1,6,10,8,11,18,20,9,2,4,11,18,41,75,125,158,177,165,74,-88,-229,-284,-274,-227,-153,-86,-41,-14,6,12,7,3,3,8,6,5,3,4,9,8,3,-8,-10,-7,7,17,26,25,20,5,-7,-12,-3,-2,-7,0,-7,-20,-27,-29,-32,-39,-38,-37,-40,-45,-49,-57,-61,-73,-71,-69,-72,-72,-75,-79,-81,-85,-85,-78,-75,-72,-61,-47,-37,-32,-29,-19,-5,4,10,16,21,17,26,27,28,20,12,6,2,0,5,12,19,27,30,32,22,9,4,12,4,0,0,4,5,8,12,19,13,4,1,7,7,4,1,1,8,7,5,2,0,1,0,0,4,7,5,4,1,6,11,22,26,21,-4,-19,-9,5,10,4,5,5,9,8,2,2,6,7,12,12,11,13,19,21,13,5,1,-2,-3,0,12,14,13,18,12,2,-1,-1,6,18,15,5,1,7,22,19,14,3,0,8,11,6,7,14,16,12,9,-1,0,4,17,14,13,19,15,10,10,21,19,10,-2,-4,14,25,21,16,8,0,3,7,12,9,11,15,14,17,25,19,12,14,9,14,15,12,10,16,13,8,11,12,16,16,18,20,21,14,10,13,17,15,15,13,12,7,11,11,10,9,12,15,15,19,11,12,16,10,9,12,22,18,21,8,1,0,5,5,13,20,26,37,46,60,75,88,88,83,77,71,59,44,38,32,27,19,7,2,-4,-13,-12,-4,-6,-8,-9,-1,4,20,61,123,187,234,250,224,116,-48,-181,-240,-248,-228,-186,-143,-102,-62,-51,-41,-35,-42,-40,-32,-29,-26,-25,-24,-31,-32,-35,-32,-33,-27,-27,-29,-34,-39,-47,-32,-23,-28,-46,-54,-48,-50,-54,-60,-61,-61,-64,-62,-63,-70,-72,-68,-68,-66,-68,-71,-69,-64,-66,-78,-72,-59,-62,-73,-89,-95,-83,-66,-59,-54,-43,-44,-42,-42,-41,-35,-31,-19,-12,-18,-16,-11,-15,-12,-13,-14,-18,-20,-26,-30,-29,-30,-36,-38,-37,-39,-42,-50,-57,-55,-49,-53,-43,-45,-47,-49,-44,-46,-49,-53,-51,-53,-56,-59,-53,-56,-63,-65,-64,-64,-66,-69,-76,-77,-73,-72,-74,-80,-87,-92,-90,-88,-90,-94,-97,-96,-88,-70,-66,-58,-59,-53,-38,-1,49,84,123,139,56,-109,-254,-316,-327,-318,-308,-287,-274,-258,-219,-174,-131,-97,-78,-74,-89,-99,-98,-98,-100,-107,-110,-118,-115,-107,-102,-101,-104,-105,-104,-107,-118,-121,-114,-113,-112,-107,-114,-120,-123,-125,-123,-127,-142,-147,-142,-144,-148,-153,-160,-169,-165,-161,-161,-170,-174,-170,-160,-157,-158,-153,-148,-127,-124,-124,-125,-118,-104,-80,-74,-71,-73,-73,-73,-70,-60,-57,-66,-70,-71,-60,-66,-69,-76,-88,-102,-109,-111,-110,-110,-103,-103,-94,-94,-100,-113,-117,-111,-101,-96,-111,-122,-121,-111,-105,-110,-105,-102,-104,-123,-137,-131,-125,-128,-123,-125,-120,-113,-111,-120,-131,-136,-126,-112,-96,-82,-57,-24,27,87,129,149,135,38,-122,-276,-347,-346,-320,-276,-225,-178,-151,-132,-123,-120,-118,-115,-101,-96,-96,-106,-125,-137,-133,-126,-120,-116,-113,-110,-106,-112,-112,-120,-133,-140,-145,-152,-146,-136,-133,-136,-148,-151,-157,-172,-180,-186,-192,-189,-180,-169,-160,-166,-166,-167,-166,-166,-165,-172,-187,-182,-171,-155,-159,-170,-173,-162,-154,-146,-142,-136,-132,-109,-80,-65,-60,-58,-60,-53,-45,-50,-61,-56,-43,-34,-33,-31,-40,-43,-47,-48,-53,-48,-49,-49,-47,-43,-41,-41,-42,-52,-67,-75,-76,-71,-75,-65,-67,-77,-83,-81,-83,-75,-69,-63,-57,-53,-48,-38,-30,-24,-18,-14,-15,-13,-19,-21,-5,11,38,84,125,150,163,143,44,-119,-259,-325,-316,-271,-208,-139,-92,-69,-60,-52,-46,-39,-33,-23,-28,-31,-31,-26,-31,-34,-32,-33,-36,-32,-31,-31,-28,-27,-27,-27,-32,-37,-49,-61,-73,-74,-81,-80,-76,-82,-94,-102,-96,-81,-66,-67,-64,-68,-64,-66,-71,-75,-72,-76,-89,-101,-119,-117,-113,-107,-99,-96,-97,-97,-87,-79,-68,-58,-45,-31,-15,-21,-28,-11,8,10,3,0,-1,3,11,18,23,31,25,14,13,10,11,11,5,-6,-12,-10,7,28,58,96,148,199,228,227,156,-16,-194,-258,-238,-184,-117,-59,-11,18,34,35,17,12,16,26,35,33,24,23,20,17,22,18,6,11,17,20,18,17,11,15,14,19,18,9,-4,-10,-3,-4,-9,-14,-19,-20,-27,-26,-32,-27,-25,-32,-45,-54,-53,-56,-65,-78,-79,-77,-73,-71,-70,-56,-51,-37,-14,7,27,40,49,53,50,67,78,81,82,68,48,41,44,38,39,46,48,47,44,39,39,41,49,60,70,85,115,145,194,242,260,261,192,23,-159,-250,-252,-220,-161,-89,-39,-17,-7,7,10,12,14,10,12,13,16,9,7,9,23,43,36,29,33,29,31,44,51,45,34,24,28,25,18,14,13,15,15,18,20,10,0,-2,-10,-18,-22,-25,-26,-15,-10,-13,-12,-17,-17,-6,-1,-1,-1,0,7,29,45,41,39,39,46,59,69,73,60,50,41,44,51,62,69,78,84,78,67,68,68,73,72,70,65,71,69,59,57,56,51,36,29,35,39,40,36,37,33,29,29,34,29,19,23,31,30,28,34,36,40,39,37,34,30,27,27,28,30,37,43,48,54,60,62,57,77,117,167,208,239,238,173,19,-148,-232,-244,-212,-147,-80,-24,5,15,21,30,37,45,45,40,32,30,30,30,27,33,34,38,42,50,47,35,33,40,38,20,12,22,21,21,13,13,18,18,11,4,1,8,13,17,17,12,15,25,25,15,7,8,18,25,24,14,8,10,13,17,23,25,25,35,52,57,54,59,64,68,58,55,69,79,92,105,97,78,67,71,71,75,74,63,61,60,69,84,87,75,55,53,58,59,49,48,55,62,69,72,79,81,67,53,52,54,58,65,66,69,69,60,51
